"Heart Rate","RR","P Wave Duration","PR Segment","PR Interval","QRS Interval","T Wave Duration","ST Segment","QT Interval","QT Corrected (Bazett)",
"","","","","",80,164,68,312,"",
92.0245,652,72,48,120,72,168,72,312,386.394,
92.0245,652,76,44,120,76,172,68,316,391.348,
88.2353,680,76,44,120,76,172,68,316,383.206,
87.7193,684,84,44,128,76,172,68,316,382.084,
89.2857,672,80,44,124,72,172,72,316,385.481,
89.8204,668,80,44,124,76,172,68,316,386.633,
90.3614,664,80,48,128,76,176,64,316,387.796,
92.0245,652,76,48,124,76,172,68,316,391.348,
92.5926,648,76,44,120,76,168,72,316,392.554,
92.5926,648,80,44,124,76,172,68,316,392.554,
92.5926,648,80,44,124,76,176,68,320,397.523,
93.1677,644,80,44,124,76,176,68,320,398.756,
92.0245,652,76,48,124,76,172,68,316,391.348,
91.4634,656,72,48,120,76,168,68,312,385.215,
91.4634,656,80,44,124,76,168,72,316,390.153,
93.75,640,72,44,116,76,172,68,316,395,
92.0245,652,64,48,112,72,172,72,316,391.348,
91.4634,656,76,48,124,72,172,72,316,390.153,
92.0245,652,76,48,124,76,176,68,320,396.302,
91.4634,656,76,44,120,76,172,72,320,395.092,
91.4634,656,76,44,120,76,172,68,316,390.153,
91.4634,656,84,44,128,76,176,68,320,395.092,
92.0245,652,72,48,120,76,168,72,316,391.348,
93.1677,644,72,48,120,72,172,72,316,393.771,
93.1677,644,76,48,124,72,176,68,316,393.771,
92.5926,648,76,44,120,76,180,64,320,397.523,
92.0245,652,80,44,124,76,176,68,320,396.302,
90.9091,660,76,48,124,72,172,72,316,388.969,
91.4634,656,80,48,128,76,172,68,316,390.153,
90.9091,660,76,44,120,76,176,68,320,393.893,
92.0245,652,76,44,120,76,172,72,320,396.302,
90.9091,660,76,44,120,76,176,68,320,393.893,
90.3614,664,84,44,128,80,176,64,320,392.705,
90.9091,660,80,44,124,76,176,68,320,393.893,
90.9091,660,84,44,128,76,168,72,316,388.969,
92.0245,652,76,44,120,76,176,68,320,396.302,
90.9091,660,76,44,120,72,180,68,320,393.893,
92.0245,652,76,44,120,76,172,72,320,396.302,
90.9091,660,72,48,120,72,176,72,320,393.893,
92.0245,652,76,48,124,76,176,68,320,396.302,
91.4634,656,72,48,120,76,176,68,320,395.092,
91.4634,656,72,48,120,72,172,72,316,390.153,
92.0245,652,80,48,128,76,176,68,320,396.302,
92.5926,648,72,48,120,76,176,68,320,397.523,
91.4634,656,76,44,120,76,172,72,320,395.092,
87.7193,684,80,44,124,76,176,68,320,386.921,
88.7574,676,80,44,124,76,172,72,320,389.203,
88.7574,676,76,44,120,76,172,72,320,389.203,
88.2353,680,80,44,124,76,172,72,320,388.057,
88.7574,676,76,48,124,76,176,68,320,389.203,
90.3614,664,80,44,124,76,172,72,320,392.705,
90.9091,660,68,48,116,72,176,72,320,393.893,
91.4634,656,80,44,124,76,180,68,324,400.03,
89.2857,672,76,44,120,72,172,72,316,385.481,
89.8204,668,76,48,124,72,172,72,316,386.633,
89.2857,672,80,44,124,76,176,68,320,390.36,
89.2857,672,80,48,128,76,176,68,320,390.36,
89.2857,672,80,44,124,80,180,64,324,395.24,
89.2857,672,80,44,124,72,172,76,320,390.36,
91.4634,656,84,40,124,76,176,72,324,400.03,
90.9091,660,76,44,120,76,172,72,320,393.893,
90.9091,660,80,48,128,72,176,72,320,393.893,
92.0245,652,76,48,124,72,172,76,320,396.302,
93.1677,644,68,44,112,76,172,76,324,403.74,
92.5926,648,76,44,120,76,172,72,320,397.523,
92.5926,648,76,48,124,72,176,72,320,397.523,
92.5926,648,80,44,124,76,176,72,324,402.492,
92.0245,652,72,48,120,72,172,76,320,396.302,
91.4634,656,72,48,120,76,176,68,320,395.092,
90.9091,660,80,44,124,76,176,72,324,398.816,
91.4634,656,80,44,124,76,176,72,324,400.03,
92.0245,652,80,44,124,76,180,68,324,401.256,
92.0245,652,80,48,128,76,180,68,324,401.256,
91.4634,656,80,44,124,76,176,72,324,400.03,
91.4634,656,72,48,120,76,176,68,320,395.092,
93.75,640,76,48,124,72,180,76,328,410,
94.3396,636,72,48,120,72,172,76,320,401.256,
96.7742,620,68,48,116,76,172,76,324,411.48,
100,600,72,44,116,76,172,76,324,418.282,
101.351,592,52,52,104,76,168,80,324,421.099,
100.671,596,80,44,124,76,164,80,320,414.502,
100.671,596,68,48,116,76,156,84,316,409.321,
102.74,584,64,52,116,72,168,76,316,413.505,
104.167,576,72,44,116,72,168,76,316,416.367,
103.448,580,64,52,116,68,168,76,312,409.676,
105.634,568,68,48,116,72,160,80,312,413.981,
105.634,568,64,48,112,72,168,72,312,413.981,
107.914,556,72,44,116,68,160,80,308,413.06,
107.914,556,68,48,116,68,164,76,308,413.06,
108.696,552,60,56,116,64,164,76,304,409.17,
110.294,544,60,48,108,68,160,76,304,412.168,
111.111,540,64,44,108,68,164,76,308,419.135,
110.294,544,60,48,108,68,160,76,304,412.168,
111.111,540,64,40,104,68,168,72,308,419.135,
110.294,544,60,48,108,64,164,72,300,406.745,
111.111,540,64,44,108,68,164,76,308,419.135,
111.111,540,60,48,108,68,160,76,304,413.692,
111.111,540,60,36,96,68,164,76,308,419.135,
111.111,540,52,52,104,68,164,76,308,419.135,
111.94,536,56,44,100,68,168,72,308,420.696,
112.782,532,48,48,96,68,168,72,308,422.275,
112.782,532,60,48,108,68,168,72,308,422.275,
113.636,528,52,52,104,64,164,76,304,418.366,
113.636,528,56,44,100,68,164,76,308,423.871,
112.782,532,64,52,116,68,160,72,300,411.306,
114.504,524,64,44,108,68,164,76,308,425.486,
113.636,528,60,52,112,64,156,84,304,418.366,
112.782,532,72,44,116,64,164,80,308,422.275,
110.294,544,64,48,112,68,168,76,312,423.014,
107.914,556,64,44,108,68,168,76,312,418.425,
103.448,580,64,48,112,72,168,76,316,414.928,
100.671,596,64,40,104,76,160,80,316,409.321,
95.5414,628,68,40,108,72,172,80,324,408.851,
92.5926,648,68,52,120,72,160,76,308,382.616,
94.3396,636,60,44,104,68,176,80,324,406.272,
96.7742,620,60,44,104,68,184,72,324,411.48,
98.6842,608,20,56,76,72,176,76,324,415.521,
100,600,60,52,112,64,156,88,308,397.626,
103.448,580,56,44,100,68,164,80,312,409.676,
104.895,572,64,36,100,68,164,80,312,412.531,
105.634,568,64,48,112,68,168,76,312,413.981,
107.143,560,56,48,104,64,168,76,308,411.582,
107.914,556,60,36,96,64,176,68,308,413.06,
109.489,548,68,44,112,64,160,72,296,399.854,
110.294,544,56,56,112,64,168,72,304,412.168,
111.111,540,60,44,104,64,160,76,300,408.248,
111.111,540,60,40,100,64,164,72,300,408.248,
112.782,532,52,48,100,64,160,76,300,411.306,
112.782,532,64,48,112,64,160,76,300,411.306,
111.94,536,56,56,112,64,164,68,296,404.305,
114.504,524,60,48,108,64,164,72,300,414.434,
114.504,524,56,48,104,64,164,76,304,419.96,
114.504,524,64,44,108,68,160,76,304,419.96,
114.504,524,60,44,104,68,156,72,296,408.908,
113.636,528,64,44,108,64,164,72,300,412.861,
115.385,520,68,40,108,76,152,72,300,416.025,
115.385,520,40,56,96,68,176,64,308,427.119,
114.504,524,44,40,84,64,172,64,300,414.434,
116.279,516,68,40,108,64,168,72,304,423.203,
114.504,524,64,44,108,64,160,76,300,414.434,
114.504,524,60,44,104,64,168,68,300,414.434,
114.504,524,64,40,104,64,164,72,300,414.434,
113.636,528,60,52,112,64,164,72,300,412.861,
112.782,532,60,44,104,68,156,76,300,411.306,
111.111,540,48,52,100,64,168,68,300,408.248,
111.94,536,56,48,104,68,156,80,304,415.232,
110.294,544,60,44,104,64,168,72,304,412.168,
110.294,544,44,32,76,68,156,72,296,401.321,
110.294,544,72,56,128,64,168,68,300,406.745,
111.111,540,64,48,112,64,168,76,308,419.135,
111.111,540,52,60,112,64,168,64,296,402.805,
112.782,532,76,36,112,68,160,76,304,416.79,
110.294,544,64,48,112,64,172,68,304,412.168,
113.636,528,72,60,132,68,168,68,304,418.366,
111.94,536,"","","",64,164,68,296,404.305,
114.504,524,64,44,108,64,164,72,300,414.434,
114.504,524,60,44,104,68,168,68,304,419.96,
114.504,524,52,44,96,64,168,68,300,414.434,
115.385,520,48,52,100,68,164,68,300,416.025,
116.279,516,60,44,104,64,168,68,300,417.635,
116.279,516,60,40,100,68,168,64,300,417.635,
116.279,516,64,44,108,64,172,64,300,417.635,
117.188,512,56,44,100,64,164,64,292,408.082,
119.048,504,64,44,108,64,168,64,296,416.943,
119.048,504,60,40,100,68,160,72,300,422.577,
117.188,512,60,40,100,64,160,72,296,413.673,
119.048,504,68,48,116,64,160,72,296,416.943,
119.048,504,60,44,104,68,168,68,304,428.211,
118.11,508,"","","",64,168,72,304,426.522,
117.188,512,56,56,112,68,160,68,296,413.673,
117.188,512,68,36,104,68,164,68,300,419.263,
115.385,520,64,48,112,64,168,68,300,416.025,
114.504,524,60,48,108,68,168,64,300,414.434,
114.504,524,20,84,104,64,168,72,304,419.96,
113.636,528,48,56,104,64,164,72,300,412.861,
113.636,528,52,44,96,68,164,68,300,412.861,
111.94,536,64,52,116,64,160,72,296,404.305,
111.94,536,64,44,108,60,156,76,292,398.842,
112.782,532,60,44,104,64,152,76,292,400.338,
110.294,544,56,48,104,68,168,60,296,401.321,
112.782,532,64,52,116,64,160,76,300,411.306,
112.782,532,36,52,88,64,176,64,304,416.79,
111.94,536,64,32,96,64,168,64,296,404.305,
113.636,528,56,48,104,64,164,68,296,407.357,
114.504,524,56,28,84,68,160,68,296,408.908,
115.385,520,56,48,104,64,160,72,296,410.478,
115.385,520,60,44,104,64,164,68,296,410.478,
117.188,512,64,48,112,68,164,68,300,419.263,
116.279,516,56,52,108,64,148,80,292,406.498,
117.188,512,64,48,112,64,156,76,296,413.673,
117.188,512,52,48,100,64,160,72,296,413.673,
117.188,512,64,48,112,64,156,68,288,402.492,
118.11,508,64,48,112,64,168,64,296,415.298,
117.188,512,60,48,108,64,164,68,296,413.673,
118.11,508,56,36,92,68,164,60,292,409.686,
117.188,512,"","","",68,164,64,296,413.673,
116.279,516,60,44,104,64,160,72,296,412.066,
117.188,512,48,28,76,64,172,64,300,419.263,
116.279,516,64,48,112,64,164,72,300,417.635,
116.279,516,56,44,100,68,156,72,296,412.066,
114.504,524,60,48,108,64,148,76,288,397.857,
114.504,524,60,44,104,68,156,76,300,414.434,
111.94,536,52,48,100,68,160,68,296,404.305,
111.94,536,48,52,100,68,168,64,300,409.769,
111.111,540,40,52,92,68,152,76,296,402.805,
107.914,556,64,48,112,68,156,72,296,396.967,
107.914,556,64,44,108,68,164,68,300,402.331,
108.696,552,68,48,116,68,160,72,300,403.786,
107.914,556,60,44,104,68,172,68,308,413.06,
107.914,556,60,40,100,68,156,76,300,402.331,
107.914,556,72,48,120,68,164,68,300,402.331,
108.696,552,64,48,112,64,164,72,300,403.786,
110.294,544,68,56,124,64,164,68,296,401.321,
110.294,544,52,52,104,64,160,72,296,401.321,
111.111,540,64,52,116,64,152,80,296,402.805,
111.111,540,64,60,124,64,156,72,292,397.362,
112.782,532,60,44,104,68,160,68,296,405.822,
111.111,540,60,48,108,64,160,72,296,402.805,
111.94,536,60,44,104,64,160,64,288,393.378,
111.94,536,68,56,124,60,156,72,288,393.378,
112.782,532,68,44,112,64,148,80,292,400.338,
111.94,536,64,44,108,64,160,68,292,398.842,
111.111,540,60,44,104,68,156,68,292,397.362,
111.94,536,64,44,108,64,156,72,292,398.842,
111.94,536,60,44,104,68,156,68,292,398.842,
110.294,544,72,52,124,64,160,72,296,401.321,
110.294,544,64,40,104,64,160,68,292,395.898,
111.111,540,56,52,108,64,156,72,292,397.362,
112.782,532,48,32,80,68,156,72,296,405.822,
111.94,536,60,44,104,64,164,68,296,404.305,
113.636,528,60,48,108,64,164,68,296,407.357,
114.504,524,60,48,108,64,164,68,296,408.908,
115.385,520,36,56,92,68,160,68,296,410.478,
115.385,520,60,44,104,68,160,68,296,410.478,
114.504,524,56,44,100,68,160,68,296,408.908,
115.385,520,60,44,104,68,160,72,300,416.025,
115.385,520,68,48,116,68,160,72,300,416.025,
116.279,516,60,48,108,68,152,76,296,412.066,
116.279,516,64,44,108,64,160,72,296,412.066,
117.188,512,68,44,112,68,156,72,296,413.673,
115.385,520,64,52,116,64,156,72,292,404.931,
113.636,528,60,44,104,68,156,72,296,407.357,
110.294,544,60,44,104,68,156,76,300,406.745,
106.383,564,56,48,104,72,152,76,300,399.468,
94.9367,632,64,44,108,72,164,68,304,382.398,
85.2273,704,60,44,104,72,168,68,308,367.083,
75.3769,796,64,44,108,76,164,72,312,349.702,
72.4638,828,68,40,108,72,168,72,312,342.878,
73.8916,812,68,40,108,76,172,68,316,350.678,
79.7872,752,64,44,108,76,176,64,316,364.4,
82.8729,724,68,44,112,72,172,68,312,366.678,
86.7052,692,64,44,108,68,168,72,308,370.252,
93.1677,644,64,44,108,68,168,72,308,383.802,
97.4026,616,64,44,108,72,172,68,312,397.525,
101.351,592,68,40,108,72,164,76,312,405.503,
102.74,584,64,40,104,68,164,76,308,403.036,
105.634,568,64,40,104,68,164,76,308,408.674,
106.383,564,60,48,108,68,160,72,300,399.468,
109.489,548,60,40,100,68,156,76,300,405.257,
110.294,544,64,44,108,68,160,72,300,406.745,
111.111,540,60,48,108,68,156,76,300,408.248,
111.111,540,56,44,100,64,160,72,296,402.805,
113.636,528,64,48,112,68,156,72,296,407.357,
112.782,532,52,48,100,64,156,76,296,405.822,
113.636,528,56,44,100,72,156,72,300,412.861,
111.94,536,64,48,112,64,160,72,296,404.305,
112.782,532,60,52,112,64,156,72,292,400.338,
112.782,532,56,48,104,68,156,72,296,405.822,
111.94,536,60,44,104,68,160,68,296,404.305,
111.94,536,60,48,108,64,160,72,296,404.305,
111.94,536,68,44,112,64,156,76,296,404.305,
112.782,532,64,44,108,68,156,72,296,405.822,
111.111,540,60,48,108,68,160,68,296,402.805,
111.111,540,64,44,108,68,156,72,296,402.805,
111.111,540,64,40,104,68,152,76,296,402.805,
110.294,544,64,48,112,64,156,72,292,395.898,
111.111,540,68,40,108,64,160,72,296,402.805,
111.111,540,64,48,112,68,160,68,296,402.805,
111.94,536,64,44,108,68,156,72,296,404.305,
111.94,536,56,44,100,68,160,68,296,404.305,
112.782,532,60,44,104,68,156,72,296,405.822,
111.94,536,68,48,116,64,160,72,296,404.305,
113.636,528,64,44,108,64,160,72,296,407.357,
114.504,524,56,44,100,64,152,80,296,408.908,
114.504,524,56,40,96,64,152,80,296,408.908,
114.504,524,60,48,108,64,156,72,292,403.383,
115.385,520,60,44,104,68,156,72,296,410.478,
114.504,524,52,44,96,68,156,72,296,408.908,
113.636,528,56,40,96,68,152,76,296,407.357,
112.782,532,64,40,104,64,160,72,296,405.822,
114.504,524,60,40,100,64,160,72,296,408.908,
114.504,524,56,44,100,64,160,72,296,408.908,
114.504,524,48,48,96,68,164,68,300,414.434,
113.636,528,60,48,108,64,164,68,296,407.357,
116.279,516,60,44,104,68,160,68,296,412.066,
115.385,520,64,44,108,64,160,72,296,410.478,
117.188,512,52,44,96,68,156,72,296,413.673,
115.385,520,60,48,108,68,164,68,300,416.025,
115.385,520,56,48,104,64,156,72,292,404.931,
116.279,516,56,44,100,68,164,64,296,412.066,
116.279,516,68,40,108,68,156,72,296,412.066,
116.279,516,60,44,104,64,148,72,284,395.361,
115.385,520,52,40,92,68,160,72,300,416.025,
114.504,524,56,44,100,68,156,72,296,408.908,
113.636,528,68,44,112,68,164,68,300,412.861,
112.782,532,60,48,108,64,160,72,296,405.822,
112.782,532,64,40,104,64,156,76,296,405.822,
112.782,532,64,44,108,64,156,76,296,405.822,
113.636,528,60,48,108,68,152,76,296,407.357,
112.782,532,52,44,96,68,164,68,300,411.306,
111.94,536,56,44,100,64,156,76,296,404.305,
111.94,536,64,44,108,64,156,76,296,404.305,
113.636,528,56,44,100,68,156,72,296,407.357,
111.94,536,68,52,120,64,168,68,300,409.769,
112.782,532,64,48,112,64,164,72,300,411.306,
113.636,528,60,48,108,68,160,72,300,412.861,
114.504,524,56,44,100,68,156,72,296,408.908,
114.504,524,60,40,100,68,160,68,296,408.908,
116.279,516,56,40,96,68,164,68,300,417.635,
116.279,516,60,44,104,68,160,72,300,417.635,
116.279,516,56,44,100,68,160,68,296,412.066,
117.188,512,56,44,100,68,156,72,296,413.673,
118.11,508,52,40,92,68,156,72,296,415.298,
118.11,508,56,44,100,68,160,72,300,420.91,
118.11,508,60,44,104,68,156,68,292,409.686,
120,500,"","","",68,160,72,300,424.264,
118.11,508,48,48,96,68,152,72,292,409.686,
120,500,60,36,96,68,156,72,296,418.607,
120,500,52,48,100,68,152,72,292,412.95,
121.951,492,52,36,88,72,156,68,296,421.997,
120,500,60,44,104,64,152,76,292,412.95,
121.951,492,60,40,100,64,152,76,292,416.294,
122.951,488,56,36,92,68,160,68,296,423.723,
121.951,492,68,36,104,68,160,64,292,416.294,
125,480,64,36,100,68,160,68,296,427.239,
123.967,484,68,40,108,68,156,68,292,419.72,
123.967,484,60,40,100,64,152,72,288,413.971,
125,480,68,36,104,68,148,72,288,415.692,
125,480,72,36,108,68,160,68,296,427.239,
122.951,488,68,40,108,64,152,72,288,412.271,
125,480,76,40,116,68,152,72,292,421.466,
122.951,488,64,40,104,64,152,72,288,412.271,
120.968,496,72,36,108,64,160,68,292,414.612,
120.968,496,56,40,96,68,156,72,296,420.292,
120,500,60,36,96,68,160,68,296,418.607,
120,500,48,44,92,68,152,76,296,418.607,
120,500,60,40,100,64,156,76,296,418.607,
120,500,60,40,100,64,164,72,300,424.264,
119.048,504,60,36,96,64,160,72,296,416.943,
120.968,496,48,44,92,64,164,72,300,425.971,
120.968,496,64,36,100,68,160,68,296,420.292,
122.951,488,60,36,96,68,164,68,300,429.449,
123.967,484,60,40,100,68,156,72,296,425.47,
122.951,488,60,44,104,68,152,76,296,423.723,
122.951,488,64,36,100,68,160,68,296,423.723,
122.951,488,60,44,104,68,156,68,292,417.997,
125,480,56,36,92,68,152,72,292,421.466,
123.967,484,64,40,104,68,156,68,292,419.72,
123.967,484,60,36,96,68,156,68,292,419.72,
123.967,484,64,40,104,68,148,72,288,413.971,
123.967,484,60,40,100,68,148,72,288,413.971,
122.951,488,56,44,100,68,148,72,288,412.271,
122.951,488,60,40,100,68,148,72,288,412.271,
121.951,492,64,40,104,68,156,68,292,416.294,
120.968,496,64,44,108,64,152,68,284,403.253,
121.951,492,52,40,92,68,156,68,292,416.294,
119.048,504,64,40,104,68,152,72,292,411.308,
118.11,508,48,44,92,68,156,68,292,409.686,
118.11,508,44,44,88,68,152,72,292,409.686,
118.11,508,60,40,100,68,152,72,292,409.686,
116.279,516,56,44,100,64,156,72,292,406.498,
115.385,520,64,40,104,68,160,68,296,410.478,
114.504,524,64,44,108,64,160,68,292,403.383,
113.636,528,68,48,116,64,156,68,288,396.347,
114.504,524,60,44,104,64,152,72,288,397.857,
114.504,524,60,40,100,72,152,68,292,403.383,
112.782,532,60,40,100,68,156,68,292,400.338,
112.782,532,64,44,108,64,156,68,288,394.854,
114.504,524,56,44,100,68,160,68,296,408.908,
114.504,524,56,44,100,68,156,68,292,403.383,
114.504,524,56,44,100,64,156,72,292,403.383,
115.385,520,56,44,100,68,156,68,292,404.931,
115.385,520,52,44,96,64,160,68,292,404.931,
116.279,516,52,48,100,64,148,72,284,395.361,
117.188,512,60,44,104,64,152,72,288,402.492,
118.11,508,56,44,100,68,152,68,288,404.074,
118.11,508,60,44,104,64,156,68,288,404.074,
120,500,60,40,100,68,152,68,288,407.294,
120,500,60,36,96,68,152,68,288,407.294,
119.048,504,64,40,104,64,148,72,284,400.04,
120,500,56,40,96,68,156,64,288,407.294,
118.11,508,60,40,100,64,156,68,288,404.074,
117.188,512,64,40,104,64,160,64,288,402.492,
118.11,508,56,36,92,68,152,68,288,404.074,
114.504,524,56,40,96,64,172,64,300,414.434,
114.504,524,56,44,100,68,156,68,292,403.383,
114.504,524,64,44,108,64,148,80,292,403.383,
116.279,516,60,36,96,64,156,72,292,406.498,
113.636,528,56,48,104,64,152,80,296,407.357,
114.504,524,64,44,108,68,152,72,292,403.383,
110.294,544,60,44,104,68,148,76,292,395.898,
104.895,572,60,44,104,72,148,72,292,386.087,
98.6842,608,68,44,112,72,160,68,300,384.742,
92.0245,652,60,44,104,72,160,68,300,371.533,
84.7458,708,68,40,108,76,164,64,304,361.291,
86.7052,692,72,40,112,76,168,60,304,365.444,
87.2093,688,72,40,112,76,164,64,304,366.505,
88.7574,676,68,44,112,72,160,68,300,364.878,
90.9091,660,64,48,112,68,168,68,304,374.198,
92.5926,648,72,44,116,72,168,64,304,377.647,
95.5414,628,64,44,108,72,164,64,300,378.566,
100.671,596,68,40,108,72,160,64,296,383.415,
102.74,584,64,44,108,72,164,64,300,392.568,
103.448,580,64,44,108,68,164,72,304,399.172,
105.634,568,60,44,104,68,160,68,296,392.751,
106.383,564,64,40,104,72,160,68,300,399.468,
106.383,564,64,44,108,68,160,68,296,394.141,
107.914,556,64,44,108,68,156,68,292,391.602,
109.489,548,64,44,108,64,156,72,292,394.451,
110.294,544,60,44,104,68,160,68,296,401.321,
110.294,544,60,48,108,64,156,72,292,395.898,
111.111,540,60,44,104,64,156,72,292,397.362,
111.94,536,60,44,104,64,152,72,288,393.378,
112.782,532,64,40,104,68,156,68,292,400.338,
113.636,528,68,40,108,68,156,68,292,401.852,
113.636,528,64,40,104,68,164,60,292,401.852,
114.504,524,60,44,104,64,156,68,288,397.857,
114.504,524,60,44,104,64,152,72,288,397.857,
113.636,528,64,40,104,68,164,64,296,407.357,
111.111,540,56,44,100,68,156,68,292,397.362,
111.111,540,60,44,104,68,156,68,292,397.362,
111.111,540,60,44,104,64,160,68,292,397.362,
112.782,532,60,44,104,64,156,72,292,400.338,
111.94,536,64,44,108,68,156,68,292,398.842,
111.111,540,56,44,100,64,160,68,292,397.362,
110.294,544,64,44,108,68,156,72,296,401.321,
107.914,556,64,44,108,72,156,68,296,396.967,
104.167,576,68,40,108,72,160,64,296,390.014,
102.041,588,72,48,120,76,164,60,300,391.23,
96.7742,620,68,40,108,76,164,64,304,386.08,
91.4634,656,60,44,104,72,160,68,300,370.399,
90.9091,660,64,40,104,72,164,68,304,374.198,
92.0245,652,64,44,108,72,168,64,304,376.487,
93.75,640,64,40,104,72,168,64,304,380,
97.4026,616,68,40,108,72,164,68,304,387.332,
99.3377,604,64,40,104,72,160,68,300,386.014,
101.351,592,64,40,104,68,164,72,304,395.105,
103.448,580,60,44,104,72,160,64,296,388.667,
104.167,576,68,40,108,72,168,64,304,400.555,
104.167,576,72,48,120,68,160,68,296,390.014,
105.634,568,68,44,112,68,156,72,296,392.751,
106.383,564,64,44,108,68,164,68,300,399.468,
107.143,560,60,48,108,68,160,68,296,395.547,
107.143,560,68,44,112,68,160,72,300,400.892,
107.914,556,64,44,108,68,160,68,296,396.967,
107.143,560,64,44,108,68,160,68,296,395.547,
108.696,552,60,48,108,64,160,72,296,398.403,
108.696,552,64,44,108,68,164,68,300,403.786,
107.143,560,64,44,108,68,168,68,304,406.237,
106.383,564,64,40,104,72,164,64,300,399.468,
104.167,576,60,48,108,68,160,68,296,390.014,
105.634,568,64,40,104,72,164,68,304,403.366,
104.895,572,68,40,108,68,168,68,304,401.953,
106.383,564,60,44,104,68,164,68,300,399.468,
106.383,564,60,44,104,72,164,64,300,399.468,
105.634,568,64,44,108,68,164,68,300,398.059,
107.914,556,64,44,108,68,164,68,300,402.331,
107.914,556,64,44,108,68,156,72,296,396.967,
108.696,552,64,44,108,68,164,68,300,403.786,
107.914,556,68,44,112,68,156,72,296,396.967,
107.914,556,64,44,108,68,156,72,296,396.967,
104.895,572,68,44,112,72,160,68,300,396.664,
102.041,588,64,44,108,72,160,68,300,391.23,
98.6842,608,68,44,112,72,160,68,300,384.742,
97.4026,616,60,48,108,72,156,72,300,382.235,
98.0392,612,72,40,112,76,160,72,308,393.709,
95.5414,628,72,40,112,72,164,72,308,388.661,
94.9367,632,72,44,116,72,172,64,308,387.429,
92.0245,652,72,44,116,72,168,68,308,381.441,
92.5926,648,72,40,112,72,164,72,308,382.616,
94.9367,632,68,44,112,72,168,68,308,387.429,
95.5414,628,68,44,112,72,168,64,304,383.613,
96.7742,620,64,44,108,72,168,64,304,386.08,
100,600,64,44,108,68,164,72,304,392.462,
103.448,580,68,44,112,72,156,72,300,393.919,
104.167,576,64,40,104,72,156,76,304,400.555,
105.634,568,64,40,104,72,168,68,308,408.674,
106.383,564,60,44,104,68,160,68,296,394.141,
107.914,556,64,40,104,68,160,72,300,402.331,
108.696,552,60,44,104,68,156,72,296,398.403,
109.489,548,60,44,104,68,160,68,296,399.854,
111.94,536,56,40,96,68,160,72,300,409.769,
111.111,540,56,44,100,68,160,68,296,402.805,
112.782,532,56,48,104,68,152,72,292,400.338,
112.782,532,60,40,100,68,160,68,296,405.822,
113.636,528,60,40,100,68,160,68,296,407.357,
114.504,524,56,40,96,64,160,72,296,408.908,
115.385,520,56,40,96,68,160,68,296,410.478,
114.504,524,64,40,104,64,160,68,292,403.383,
114.504,524,64,44,108,68,164,64,296,408.908,
112.782,532,56,44,100,72,160,68,300,411.306,
110.294,544,64,40,104,64,160,72,296,401.321,
107.914,556,64,40,104,68,168,64,300,402.331,
104.895,572,60,44,104,68,160,72,300,396.664,
104.167,576,60,40,100,68,164,72,304,400.555,
107.143,560,68,40,108,72,164,72,308,411.582,
105.634,568,68,44,112,68,160,72,300,398.059,
108.696,552,68,44,112,72,160,72,304,409.17,
108.696,552,64,48,112,68,164,68,300,403.786,
109.489,548,60,44,104,68,160,72,300,405.257,
107.914,556,68,44,112,68,164,68,300,402.331,
107.143,560,68,44,112,68,156,76,300,400.892,
103.448,580,68,44,112,72,156,72,300,393.919,
101.351,592,64,40,104,72,160,76,308,400.304,
96.1538,624,72,44,116,72,164,68,304,384.841,
94.9367,632,64,44,108,72,168,68,308,387.429,
96.1538,624,64,40,104,72,168,68,308,389.905,
97.4026,616,68,40,108,72,164,72,308,392.428,
100.671,596,60,40,100,72,160,72,304,393.777,
102.041,588,64,44,108,72,152,80,304,396.447,
99.3377,604,68,40,108,76,156,72,304,391.161,
101.351,592,68,36,104,72,156,76,304,395.105,
103.448,580,64,44,108,68,164,72,304,399.172,
106.383,564,64,48,112,68,164,72,304,404.794,
106.383,564,64,40,104,72,164,68,304,404.794,
106.383,564,64,44,108,68,164,68,300,399.468,
107.143,560,64,48,112,68,164,68,300,400.892,
107.143,560,64,44,108,68,164,72,304,406.237,
106.383,564,64,44,108,68,156,76,300,399.468,
105.634,568,68,48,116,68,156,76,300,398.059,
104.895,572,60,44,104,72,164,68,304,401.953,
102.74,584,68,44,112,68,160,72,300,392.568,
102.74,584,64,48,112,72,160,72,304,397.802,
104.167,576,64,44,108,68,156,76,300,395.285,
104.895,572,68,40,108,72,160,72,304,401.953,
105.634,568,68,44,112,72,164,68,304,403.366,
104.895,572,68,44,112,68,164,68,300,396.664,
104.895,572,64,48,112,68,160,72,300,396.664,
104.167,576,68,48,116,68,164,72,304,400.555,
104.167,576,72,44,116,72,156,76,304,400.555,
101.351,592,64,44,108,72,160,72,304,395.105,
100.671,596,68,44,112,72,160,72,304,393.777,
100.671,596,64,40,104,72,160,72,304,393.777,
103.448,580,64,40,104,72,156,76,304,399.172,
102.041,588,64,44,108,72,160,72,304,396.447,
100,600,68,48,116,72,160,72,304,392.462,
100.671,596,68,44,112,72,164,68,304,393.777,
101.351,592,64,44,108,68,164,72,304,395.105,
102.74,584,72,44,116,68,164,72,304,397.802,
104.167,576,64,44,108,72,168,68,308,405.826,
103.448,580,68,44,112,68,160,72,300,393.919,
104.895,572,64,44,108,68,160,72,300,396.664,
105.634,568,72,40,112,72,164,72,308,408.674,
106.383,564,60,48,108,68,164,72,304,404.794,
106.383,564,64,44,108,72,160,72,304,404.794,
105.634,568,68,44,112,72,156,72,300,398.059,
103.448,580,72,44,116,72,160,72,304,399.172,
102.041,588,64,44,108,72,160,72,304,396.447,
98.6842,608,72,44,116,72,164,72,308,395.002,
94.3396,636,64,44,108,72,160,72,304,381.193,
94.3396,636,72,44,116,72,164,72,308,386.209,
95.5414,628,68,44,112,72,156,76,304,383.613,
96.1538,624,68,48,116,68,164,76,308,389.905,
98.0392,612,72,44,116,72,164,72,308,393.709,
99.3377,604,68,44,112,72,168,68,308,396.307,
99.3377,604,68,48,116,68,164,72,304,391.161,
100,600,68,44,112,68,164,72,304,392.462,
100.671,596,64,48,112,72,164,68,304,393.777,
102.041,588,64,44,108,72,164,72,308,401.663,
102.74,584,60,44,104,72,160,72,304,397.802,
103.448,580,68,40,108,72,168,68,308,404.424,
103.448,580,64,44,108,68,160,72,300,393.919,
104.895,572,60,48,108,68,160,72,300,396.664,
105.634,568,64,40,104,68,164,72,304,403.366,
106.383,564,64,44,108,72,164,68,304,404.794,
107.143,560,64,44,108,68,164,72,304,406.237,
107.914,556,60,40,100,68,160,72,300,402.331,
107.914,556,60,44,104,68,160,72,300,402.331,
109.489,548,56,48,104,68,156,72,296,399.854,
110.294,544,60,44,104,64,164,72,300,406.745,
111.111,540,60,44,104,68,156,72,296,402.805,
111.111,540,60,40,100,68,160,72,300,408.248,
109.489,548,68,40,108,68,160,72,300,405.257,
110.294,544,64,44,108,68,164,64,296,401.321,
110.294,544,64,44,108,68,156,76,300,406.745,
110.294,544,60,40,100,68,156,76,300,406.745,
107.914,556,64,48,112,68,156,76,300,402.331,
106.383,564,64,40,104,72,156,76,304,404.794,
102.041,588,56,44,100,72,156,80,308,401.663,
96.7742,620,60,36,96,72,164,76,312,396.24,
86.2069,696,72,44,116,76,172,68,316,378.776,
84.2697,712,76,44,120,76,172,68,316,374.496,
86.7052,692,72,48,120,72,168,76,316,379.869,
90.9091,660,72,44,116,72,172,76,320,393.893,
92.0245,652,72,48,120,72,168,76,316,391.348,
96.1538,624,64,44,108,72,172,72,316,400.032,
98.0392,612,68,48,116,72,164,76,312,398.822,
100,600,72,44,116,76,164,72,312,402.79,
95.5414,628,68,44,112,72,168,76,316,398.756,
93.75,640,76,44,120,72,172,72,316,395,
91.4634,656,68,48,116,72,164,76,312,385.215,
91.4634,656,72,44,116,68,168,76,312,385.215,
96.1538,624,72,44,116,72,168,72,312,394.968,
95.5414,628,68,48,116,68,164,76,308,388.661,
101.351,592,64,44,108,72,164,80,316,410.701,
100,600,72,44,116,72,164,76,312,402.79,
103.448,580,68,44,112,72,164,72,308,404.424,
104.895,572,64,44,108,72,160,76,308,407.242,
105.634,568,60,48,108,68,156,80,304,403.366,
106.383,564,64,48,112,68,164,72,304,404.794,
107.914,556,68,48,116,68,164,72,304,407.696,
107.914,556,64,48,112,64,156,76,296,396.967,
109.489,548,64,44,108,68,168,68,304,410.661,
109.489,548,68,48,116,68,164,72,304,410.661,
110.294,544,60,48,108,68,160,72,300,406.745,
110.294,544,64,44,108,68,160,72,300,406.745,
111.111,540,68,52,120,64,164,72,300,408.248,
112.782,532,68,48,116,68,160,72,300,411.306,
112.782,532,68,52,120,64,164,72,300,411.306,
112.782,532,60,52,112,68,160,72,300,411.306,
112.782,532,60,48,108,68,160,72,300,411.306,
111.94,536,64,44,108,68,160,72,300,409.769,
111.94,536,64,44,108,68,156,72,296,404.305,
110.294,544,60,44,104,68,160,72,300,406.745,
109.489,548,68,40,108,68,160,76,304,410.661,
108.696,552,68,44,112,72,160,72,304,409.17,
107.143,560,68,44,112,68,160,76,304,406.237,
106.383,564,72,40,112,72,164,68,304,404.794,
106.383,564,64,44,108,68,168,72,308,410.12,
105.634,568,72,48,120,72,160,72,304,403.366,
105.634,568,64,44,108,68,160,76,304,403.366,
104.895,572,64,48,112,68,160,76,304,401.953,
104.895,572,68,48,116,68,164,72,304,401.953,
104.167,576,64,48,112,68,164,72,304,400.555,
103.448,580,68,44,112,72,168,68,308,404.424,
104.167,576,72,40,112,72,164,68,304,400.555,
104.895,572,64,44,108,72,168,64,304,401.953,
104.895,572,64,44,108,68,160,72,300,396.664,
107.143,560,80,48,128,72,168,68,308,411.582,
107.143,560,68,44,112,68,164,72,304,406.237,
107.914,556,68,48,116,68,164,72,304,407.696,
108.696,552,60,48,108,64,160,72,296,398.403,
110.294,544,68,44,112,68,160,72,300,406.745,
109.489,548,68,48,116,68,160,72,300,405.257,
109.489,548,68,48,116,68,164,68,300,405.257,
107.914,556,60,52,112,68,164,68,300,402.331,
107.143,560,68,52,120,68,160,76,304,406.237,
106.383,564,64,48,112,68,160,76,304,404.794,
104.167,576,68,44,112,72,164,72,308,405.826,
102.74,584,68,44,112,72,156,76,304,397.802,
102.74,584,68,48,116,72,160,72,304,397.802,
102.74,584,64,44,108,72,164,72,308,403.036,
102.041,588,64,44,108,72,160,72,304,396.447,
102.041,588,68,48,116,72,160,72,304,396.447,
102.74,584,68,44,112,68,164,72,304,397.802,
102.74,584,64,48,112,72,164,64,300,392.568,
102.74,584,64,44,108,72,168,68,308,403.036,
104.167,576,64,40,104,68,156,68,292,384.744,
104.895,572,64,48,112,64,160,76,300,396.664,
107.914,556,64,52,116,68,160,72,300,402.331,
108.696,552,60,48,108,68,156,76,300,403.786,
108.696,552,60,48,108,64,160,76,300,403.786,
110.294,544,68,52,120,64,164,72,300,406.745,
111.111,540,68,48,116,68,160,72,300,408.248,
109.489,548,60,44,104,68,160,72,300,405.257,
108.696,552,64,48,112,68,160,72,300,403.786,
107.914,556,64,48,112,68,168,68,304,407.696,
107.143,560,64,44,108,68,164,72,304,406.237,
107.143,560,64,52,116,64,160,72,296,395.547,
107.914,556,60,48,108,68,164,68,300,402.331,
107.914,556,68,44,112,68,168,68,304,407.696,
107.914,556,64,48,112,64,160,72,296,396.967,
109.489,548,64,44,108,64,164,72,300,405.257,
110.294,544,64,44,108,68,160,68,296,401.321,
110.294,544,64,44,108,68,156,72,296,401.321,
109.489,548,64,48,112,68,160,72,300,405.257,
109.489,548,56,52,108,64,160,72,296,399.854,
111.111,540,64,48,112,68,164,72,304,413.692,
108.696,552,68,48,116,68,160,76,304,409.17,
105.634,568,68,48,116,68,164,72,304,403.366,
106.383,564,64,48,112,72,152,80,304,404.794,
101.351,592,68,48,116,72,160,72,304,395.105,
96.1538,624,60,52,112,72,160,72,304,384.841,
90.9091,660,68,48,116,72,164,72,308,379.122,
88.2353,680,72,44,116,76,164,72,312,378.356,
85.2273,704,68,44,112,80,168,64,312,371.85,
86.7052,692,72,44,116,80,172,64,316,379.869,
87.7193,684,76,60,136,76,168,72,316,382.084,
88.7574,676,76,48,124,72,168,72,312,379.473,
88.7574,676,72,48,120,72,168,72,312,379.473,
90.3614,664,68,48,116,72,172,72,316,387.796,
92.0245,652,68,44,112,72,172,72,316,391.348,
92.5926,648,72,44,116,72,172,68,312,387.585,
93.1677,644,76,52,128,72,172,68,312,388.787,
93.1677,644,76,44,120,76,164,72,312,388.787,
93.1677,644,72,44,116,72,172,72,316,393.771,
93.75,640,72,48,120,72,172,68,312,390,
94.3396,636,68,52,120,72,168,72,312,391.224,
96.1538,624,76,52,128,76,164,72,312,394.968,
94.9367,632,64,44,108,68,164,76,308,387.429,
95.5414,628,68,48,116,72,172,68,312,393.708,
94.9367,632,72,48,120,72,164,72,308,387.429,
96.1538,624,68,48,116,68,160,76,304,384.841,
96.1538,624,64,48,112,72,168,68,308,389.905,
96.1538,624,72,48,120,76,160,72,308,389.905,
96.1538,624,68,48,116,72,168,68,308,389.905,
96.7742,620,68,48,116,72,164,72,308,391.16,
96.7742,620,72,48,120,72,156,76,304,386.08,
96.7742,620,72,48,120,68,164,76,308,391.16,
98.6842,608,72,48,120,72,164,72,308,395.002,
99.3377,604,68,48,116,72,168,68,308,396.307,
99.3377,604,60,56,116,68,172,68,308,396.307,
100,600,68,52,120,68,164,72,304,392.462,
100,600,68,48,116,72,160,72,304,392.462,
99.3377,604,60,52,112,68,164,72,304,391.161,
101.351,592,72,52,124,72,160,80,312,405.503,
100,600,64,52,116,72,160,76,308,397.626,
100.671,596,64,56,120,72,160,72,304,393.777,
100,600,60,48,108,72,164,76,312,402.79,
100.671,596,72,48,120,72,160,76,308,398.958,
100,600,60,44,104,72,156,80,308,397.626,
100,600,72,48,120,72,156,76,304,392.462,
98.6842,608,64,52,116,68,164,72,304,389.872,
100,600,68,52,120,72,160,72,304,392.462,
100,600,68,48,116,72,164,72,308,397.626,
99.3377,604,60,52,112,72,160,76,308,396.307,
99.3377,604,64,48,112,72,160,76,308,396.307,
100,600,64,56,120,68,164,76,308,397.626,
100.671,596,64,48,112,68,164,72,304,393.777,
101.351,592,52,56,108,68,152,84,304,395.105,
102.041,588,72,44,116,72,152,80,304,396.447,
101.351,592,68,48,116,72,152,88,312,405.503,
100.671,596,68,44,112,68,168,72,308,398.958,
100.671,596,64,56,120,68,164,76,308,398.958,
102.041,588,64,44,108,72,164,72,308,401.663,
100,600,64,52,116,72,160,72,304,392.462,
100.671,596,72,48,120,72,160,76,308,398.958,
97.4026,616,68,48,116,68,160,76,304,387.332,
96.1538,624,68,48,116,72,168,68,308,389.905,
95.5414,628,64,52,116,68,168,72,308,388.661,
96.1538,624,64,48,112,72,168,72,312,394.968,
95.5414,628,76,52,128,72,168,68,308,388.661,
95.5414,628,80,44,124,72,164,76,312,393.708,
94.9367,632,68,48,116,72,164,76,312,392.461,
96.1538,624,68,48,116,72,164,76,312,394.968,
96.1538,624,72,48,120,72,168,72,312,394.968,
96.7742,620,72,44,116,72,168,72,312,396.24,
96.1538,624,72,48,120,72,168,72,312,394.968,
97.4026,616,76,44,120,72,164,72,308,392.428,
98.6842,608,60,52,112,68,164,76,308,395.002,
99.3377,604,68,48,116,68,160,80,308,396.307,
99.3377,604,64,52,116,68,164,76,308,396.307,
99.3377,604,68,48,116,72,164,72,308,396.307,
98.6842,608,64,48,112,72,168,68,308,395.002,
98.0392,612,72,48,120,72,164,76,312,398.822,
97.4026,616,72,44,116,76,164,72,312,397.525,
96.1538,624,76,48,124,72,164,76,312,394.968,
94.3396,636,76,48,124,72,160,76,308,386.209,
93.75,640,72,48,120,72,168,72,312,390,
92.5926,648,72,44,116,72,168,72,312,387.585,
93.1677,644,72,48,120,68,168,72,308,383.802,
94.3396,636,60,52,112,72,168,72,312,391.224,
96.1538,624,72,44,116,72,160,76,308,389.905,
95.5414,628,68,48,116,72,164,76,312,393.708,
96.7742,620,72,48,120,68,168,72,308,391.16,
98.6842,608,68,48,116,72,164,76,312,400.132,
99.3377,604,64,52,116,68,168,72,308,396.307,
100,600,68,44,112,72,164,72,308,397.626,
99.3377,604,72,44,116,72,164,76,312,401.454,
98.6842,608,72,44,116,72,164,76,312,400.132,
97.4026,616,72,44,116,72,160,76,308,392.428,
96.7742,620,68,48,116,68,164,80,312,396.24,
96.7742,620,72,48,120,72,164,72,308,391.16,
97.4026,616,64,52,116,72,160,76,308,392.428,
98.6842,608,68,52,120,72,160,72,304,389.872,
100,600,68,48,116,72,164,76,312,402.79,
99.3377,604,72,44,116,72,164,76,312,401.454,
98.0392,612,76,48,124,72,164,72,308,393.709,
97.4026,616,64,52,116,72,156,76,304,387.332,
98.0392,612,80,48,128,72,164,76,312,398.822,
97.4026,616,64,48,112,72,156,76,304,387.332,
96.7742,620,60,52,112,68,160,76,304,386.08,
98.0392,612,80,52,132,72,160,80,312,398.822,
96.7742,620,72,40,112,68,160,84,312,396.24,
97.4026,616,72,48,120,72,152,84,308,392.428,
97.4026,616,72,52,124,76,160,76,312,397.525,
97.4026,616,84,28,112,72,164,76,312,397.525,
96.1538,624,68,48,116,72,160,80,312,394.968,
95.5414,628,68,48,116,72,164,76,312,393.708,
96.7742,620,72,48,120,68,160,80,308,391.16,
98.0392,612,64,52,116,72,168,72,312,398.822,
97.4026,616,64,52,116,68,164,76,308,392.428,
98.6842,608,72,48,120,68,156,80,304,389.872,
98.6842,608,68,52,120,72,160,76,308,395.002,
98.6842,608,68,48,116,72,160,80,312,400.132,
97.4026,616,68,44,112,72,168,72,312,397.525,
98.6842,608,60,52,112,72,168,72,312,400.132,
98.6842,608,52,60,112,68,148,88,304,389.872,
99.3377,604,76,52,128,72,160,80,312,401.454,
100,600,68,44,112,72,168,72,312,402.79,
98.0392,612,68,44,112,72,160,76,308,393.709,
97.4026,616,64,48,112,72,160,76,308,392.428,
96.7742,620,68,52,120,68,164,76,308,391.16,
97.4026,616,72,48,120,72,168,76,316,402.621,
96.7742,620,68,48,116,68,168,76,312,396.24,
98.0392,612,76,48,124,72,164,76,312,398.822,
100,600,60,48,108,72,164,72,308,397.626,
102.041,588,68,48,116,72,168,72,312,406.88,
102.74,584,64,48,112,72,168,68,308,403.036,
104.167,576,52,60,112,72,172,68,312,411.096,
105.634,568,64,44,108,68,160,76,304,403.366,
107.143,560,68,44,112,68,168,72,308,411.582,
108.696,552,64,44,108,68,164,76,308,414.554,
109.489,548,60,48,108,68,164,76,308,416.064,
109.489,548,60,48,108,68,164,72,304,410.661,
111.111,540,64,40,104,68,164,72,304,413.692,
111.111,540,68,48,116,64,168,72,304,413.692,
112.782,532,48,52,100,64,160,76,300,411.306,
113.636,528,48,40,88,68,160,76,304,418.366,
113.636,528,52,40,92,68,168,68,304,418.366,
114.504,524,52,40,92,68,160,76,304,419.96,
111.94,536,64,40,104,72,160,72,304,415.232,
112.782,532,52,40,92,68,168,72,308,422.275,
113.636,528,68,44,112,68,164,72,304,418.366,
115.385,520,64,44,108,68,168,68,304,421.572,
115.385,520,64,40,104,68,168,68,304,421.572,
116.279,516,52,44,96,68,160,76,304,423.203,
116.279,516,64,40,104,68,164,72,304,423.203,
115.385,520,64,44,108,64,160,76,300,416.025,
116.279,516,64,44,108,68,168,68,304,423.203,
115.385,520,64,40,104,68,164,72,304,421.572,
111.94,536,60,44,104,64,164,76,304,415.232,
107.914,556,60,40,100,68,164,76,308,413.06,
102.041,588,68,36,104,72,172,76,320,417.312,
95.5414,628,68,40,108,72,168,80,320,403.804,
93.75,640,68,40,108,72,168,76,316,395,
94.9367,632,64,40,104,72,172,76,320,402.524,
96.1538,624,64,36,100,72,172,76,320,405.096,
100,600,60,40,100,68,164,80,312,402.79,
104.167,576,64,36,100,68,164,80,312,411.096,
104.895,572,56,48,104,68,164,76,308,407.242,
107.914,556,56,44,100,68,164,76,308,413.06,
108.696,552,56,40,96,68,160,80,308,414.554,
110.294,544,52,40,92,68,164,80,312,423.014,
108.696,552,56,48,104,64,164,76,304,409.17,
111.94,536,56,36,92,68,164,76,308,420.696,
111.111,540,56,48,104,64,164,76,304,413.692,
113.636,528,56,40,96,68,164,72,304,418.366,
113.636,528,60,40,100,68,168,68,304,418.366,
113.636,528,60,44,104,64,168,72,304,418.366,
114.504,524,56,48,104,64,168,72,304,419.96,
114.504,524,64,40,104,64,168,72,304,419.96,
115.385,520,56,48,104,68,168,68,304,421.572,
116.279,516,60,44,104,68,164,68,300,417.635,
115.385,520,56,44,100,64,164,72,300,416.025,
115.385,520,56,44,100,68,164,72,304,421.572,
116.279,516,60,40,100,68,164,68,300,417.635,
116.279,516,52,44,96,68,160,76,304,423.203,
115.385,520,56,44,100,64,156,76,296,410.478,
117.188,512,64,40,104,68,168,68,304,424.853,
118.11,508,60,48,108,68,164,72,304,426.522,
119.048,504,56,40,96,68,160,72,300,422.577,
118.11,508,52,36,88,68,160,72,300,420.91,
118.11,508,64,44,108,68,164,72,304,426.522,
116.279,516,60,44,104,68,156,72,296,412.066,
111.111,540,68,32,100,68,160,72,300,408.248,
109.489,548,64,44,108,68,164,68,300,405.257,
107.143,560,68,40,108,68,164,72,304,406.237,
107.914,556,56,44,100,68,160,72,300,402.331,
109.489,548,60,44,104,64,160,76,300,405.257,
110.294,544,60,40,100,64,156,76,296,401.321,
111.94,536,64,44,108,64,172,68,304,415.232,
112.782,532,56,48,104,68,156,76,300,411.306,
113.636,528,40,44,84,68,164,72,304,418.366,
111.94,536,56,44,100,64,160,76,300,409.769,
114.504,524,60,44,104,68,164,68,300,414.434,
114.504,524,56,48,104,64,152,80,296,408.908,
112.782,532,48,52,100,68,156,72,296,405.822,
112.782,532,64,40,104,68,156,72,296,405.822,
113.636,528,64,44,108,68,160,72,300,412.861,
113.636,528,60,44,104,64,156,76,296,407.357,
112.782,532,56,52,108,68,152,72,292,400.338,
111.111,540,64,40,104,64,164,72,300,408.248,
111.111,540,68,48,116,68,164,72,304,413.692,
107.914,556,56,48,104,64,164,68,296,396.967,
107.914,556,60,48,108,68,168,68,304,407.696,
107.143,560,60,48,108,68,172,60,300,400.892,
106.383,564,60,52,112,64,152,80,296,394.141,
107.143,560,68,60,128,60,156,80,296,395.547,
107.914,556,68,44,112,64,160,72,296,396.967,
109.489,548,60,48,108,68,156,72,296,399.854,
109.489,548,40,48,88,64,164,76,304,410.661,
109.489,548,60,48,108,64,164,68,296,399.854,
108.696,552,56,48,104,64,160,72,296,398.403,
109.489,548,64,40,104,68,164,72,304,410.661,
109.489,548,64,44,108,68,156,76,300,405.257,
109.489,548,68,44,112,64,156,76,296,399.854,
111.111,540,64,44,108,64,160,72,296,402.805,
111.94,536,60,48,108,64,164,68,296,404.305,
112.782,532,68,44,112,64,160,72,296,405.822,
113.636,528,68,40,108,68,160,72,300,412.861,
113.636,528,60,48,108,64,160,72,296,407.357,
114.504,524,60,40,100,68,164,68,300,414.434,
114.504,524,60,44,104,64,160,68,292,403.383,
115.385,520,60,48,108,64,156,72,292,404.931,
116.279,516,64,40,104,68,156,72,296,412.066,
115.385,520,56,44,100,68,156,72,296,410.478,
113.636,528,68,48,116,68,156,72,296,407.357,
111.111,540,64,44,108,68,156,76,300,408.248,
107.914,556,64,40,104,72,160,68,300,402.331,
103.448,580,64,44,108,72,160,68,300,393.919,
100,600,68,40,108,72,160,68,300,387.298,
99.3377,604,60,44,104,72,160,68,300,386.014,
100.671,596,60,44,104,72,160,68,300,388.596,
100,600,68,40,108,72,164,68,304,392.462,
100.671,596,68,40,108,72,164,68,304,393.777,
104.167,576,64,40,104,68,160,72,300,395.285,
102.74,584,64,40,104,72,164,68,304,397.802,
104.167,576,64,44,108,68,164,72,304,400.555,
105.634,568,60,44,104,68,160,72,300,398.059,
107.143,560,64,48,112,68,164,68,300,400.892,
109.489,548,60,44,104,68,152,80,300,405.257,
108.696,552,72,48,120,64,156,76,296,398.403,
109.489,548,60,44,104,68,164,72,304,410.661,
107.143,560,68,48,116,68,164,68,300,400.892,
106.383,564,64,44,108,72,164,68,304,404.794,
104.167,576,64,44,108,72,160,72,304,400.555,
103.448,580,68,44,112,72,164,68,304,399.172,
102.041,588,68,40,108,76,164,68,308,401.663,
100.671,596,64,44,108,72,160,72,304,393.777,
102.74,584,68,40,108,76,156,72,304,397.802,
100.671,596,64,48,112,72,160,72,304,393.777,
102.041,588,60,44,104,72,164,72,308,401.663,
102.041,588,64,44,108,72,164,72,308,401.663,
102.041,588,60,44,104,72,164,68,304,396.447,
102.74,584,64,44,108,72,164,72,308,403.036,
102.74,584,64,40,104,72,160,68,300,392.568,
102.74,584,64,44,108,72,164,68,304,397.802,
104.167,576,64,40,104,72,164,68,304,400.555,
103.448,580,64,44,108,68,164,72,304,399.172,
104.167,576,60,44,104,72,164,64,300,395.285,
104.895,572,60,44,104,72,164,68,304,401.953,
105.634,568,60,44,104,72,160,72,304,403.366,
106.383,564,60,44,104,68,164,72,304,404.794,
107.143,560,64,40,104,68,160,72,300,400.892,
107.143,560,64,40,104,68,160,72,300,400.892,
108.696,552,60,44,104,68,156,72,296,398.403,
109.489,548,60,44,104,68,156,72,296,399.854,
110.294,544,56,40,96,68,156,76,300,406.745,
110.294,544,60,44,104,68,156,72,296,401.321,
111.94,536,60,36,96,68,160,72,300,409.769,
112.782,532,56,44,100,68,160,68,296,405.822,
113.636,528,52,48,100,68,148,84,300,412.861,
113.636,528,64,44,108,68,156,76,300,412.861,
115.385,520,56,40,96,68,168,64,300,416.025,
116.279,516,56,56,112,68,160,68,296,412.066,
112.782,532,68,44,112,68,156,76,300,411.306,
107.914,556,60,52,112,72,160,72,304,407.696,
92.5926,648,76,40,116,72,160,72,304,377.647,
82.8729,724,72,40,112,76,164,68,308,361.977,
61.9835,968,72,40,112,76,176,68,320,325.246,
60.241,996,76,32,108,80,184,64,328,328.658,
64.9351,924,68,40,108,76,176,72,324,337.061,
76.9231,780,68,44,112,72,172,76,320,362.329,
78.534,764,72,48,120,76,176,68,320,366.103,
79.7872,752,72,48,120,72,172,72,316,364.4,
85.2273,704,76,44,120,76,176,68,320,381.385,
85.7143,700,76,44,120,72,172,72,316,377.692,
86.2069,696,76,44,120,76,172,68,316,378.776,
87.7193,684,76,44,120,76,176,68,320,386.921,
89.2857,672,80,44,124,76,172,72,320,390.36,
90.9091,660,64,48,112,72,172,72,316,388.969,
92.5926,648,76,44,120,72,180,68,320,397.523,
92.5926,648,76,44,120,72,172,72,316,392.554,
92.5926,648,76,44,120,76,168,72,316,392.554,
91.4634,656,76,44,120,72,176,68,316,390.153,
91.4634,656,72,48,120,72,176,68,316,390.153,
92.0245,652,80,44,124,76,172,68,316,391.348,
92.5926,648,64,48,112,76,172,72,320,397.523,
90.3614,664,72,48,120,76,176,64,316,387.796,
89.8204,668,76,44,120,72,176,68,316,386.633,
92.5926,648,76,44,120,76,172,68,316,392.554,
92.5926,648,76,44,120,76,172,72,320,397.523,
92.0245,652,68,48,116,72,176,68,316,391.348,
91.4634,656,80,44,124,72,176,68,316,390.153,
92.0245,652,80,44,124,76,172,68,316,391.348,
90.9091,660,72,48,120,72,168,72,312,384.045,
90.3614,664,76,44,120,76,172,68,316,387.796,
89.8204,668,80,44,124,76,176,68,320,391.527,
89.2857,672,76,44,120,72,172,72,316,385.481,
89.2857,672,72,48,120,72,176,68,316,385.481,
89.8204,668,84,48,132,76,176,64,316,386.633,
89.8204,668,76,44,120,80,176,64,320,391.527,
90.3614,664,76,44,120,72,172,72,316,387.796,
90.3614,664,80,44,124,76,172,68,316,387.796,
90.3614,664,72,48,120,72,176,68,316,387.796,
91.4634,656,80,48,128,72,172,72,316,390.153,
92.5926,648,72,48,120,72,172,72,316,392.554,
92.0245,652,68,48,116,72,172,72,316,391.348,
91.4634,656,80,48,128,76,180,64,320,395.092,
92.0245,652,76,48,124,76,176,68,320,396.302,
92.0245,652,68,48,116,72,172,72,316,391.348,
92.5926,648,76,48,124,72,176,68,316,392.554,
90.9091,660,72,48,120,76,180,64,320,393.893,
90.3614,664,76,48,124,72,172,72,316,387.796,
90.3614,664,68,44,112,76,172,72,320,392.705,
89.2857,672,80,48,128,76,180,64,320,390.36,
86.7052,692,80,48,128,76,172,68,316,379.869,
85.7143,700,80,48,128,76,176,64,316,377.692,
83.7989,716,76,48,124,76,180,64,320,378.176,
82.8729,724,80,48,128,76,176,68,320,376.08,
82.8729,724,80,44,124,80,176,68,324,380.781,
82.8729,724,84,44,128,76,180,68,324,380.781,
82.4176,728,76,48,124,72,172,72,316,370.358,
83.7989,716,72,48,120,76,176,68,320,378.176,
84.2697,712,72,48,120,76,176,68,320,379.236,
82.8729,724,80,48,128,72,180,68,320,376.08,
83.3333,720,76,48,124,80,180,64,324,381.838,
84.2697,712,76,44,120,80,180,64,324,383.977,
85.7143,700,80,44,124,72,176,72,320,382.473,
85.2273,704,80,44,124,76,180,68,324,386.152,
85.7143,700,76,48,124,72,176,72,320,382.473,
86.2069,696,84,44,128,76,176,68,320,383.571,
87.2093,688,80,44,124,76,180,68,324,390.617,
85.2273,704,80,44,124,76,176,68,320,381.385,
85.7143,700,84,44,128,76,176,72,324,387.254,
85.2273,704,76,44,120,76,180,68,324,386.152,
84.7458,708,76,48,124,76,176,72,324,385.06,
84.2697,712,76,48,124,76,176,68,320,379.236,
85.2273,704,80,44,124,80,180,68,328,390.92,
85.2273,704,80,48,128,72,172,76,320,381.385,
87.7193,684,88,40,128,76,176,72,324,391.757,
86.7052,692,80,44,124,76,172,72,320,384.678,
87.2093,688,76,48,124,76,168,76,320,385.794,
87.7193,684,80,44,124,76,160,76,312,377.248,
87.2093,688,76,44,120,76,168,76,320,385.794,
86.7052,692,80,44,124,72,172,76,320,384.678,
86.2069,696,76,44,120,76,176,72,324,388.365,
85.2273,704,84,44,128,72,176,72,320,381.385,
85.7143,700,80,48,128,76,180,68,324,387.254,
86.7052,692,80,40,120,76,176,72,324,389.486,
87.7193,684,80,40,120,76,176,72,324,391.757,
87.7193,684,72,48,120,76,180,68,324,391.757,
87.2093,688,84,44,128,76,180,68,324,390.617,
87.7193,684,88,44,132,80,180,68,328,396.594,
87.7193,684,80,44,124,76,180,72,328,396.594,
86.7052,692,76,44,120,76,176,72,324,389.486,
85.7143,700,84,44,128,76,180,68,324,387.254,
87.2093,688,76,44,120,76,176,72,324,390.617,
86.2069,696,76,44,120,72,176,76,324,388.365,
85.2273,704,84,48,132,76,180,68,324,386.152,
87.2093,688,80,48,128,72,180,72,324,390.617,
87.2093,688,80,44,124,76,176,72,324,390.617,
87.2093,688,76,44,120,80,180,68,328,395.439,
87.2093,688,80,48,128,80,180,68,328,395.439,
86.7052,692,80,48,128,76,176,72,324,389.486,
87.7193,684,72,44,116,76,176,76,328,396.594,
87.2093,688,80,44,124,76,176,72,324,390.617,
87.7193,684,76,44,120,76,176,72,324,391.757,
87.2093,688,84,44,128,76,180,68,324,390.617,
88.7574,676,80,44,124,76,176,72,324,394.068,
88.7574,676,76,48,124,72,180,72,324,394.068,
90.3614,664,76,48,124,76,176,72,324,397.613,
90.9091,660,72,48,120,76,176,72,324,398.816,
92.0245,652,72,44,116,76,180,72,328,406.209,
90.9091,660,76,48,124,72,180,72,324,398.816,
91.4634,656,80,44,124,80,180,68,328,404.969,
89.8204,668,76,48,124,76,176,72,324,396.421,
88.7574,676,80,44,124,72,176,76,324,394.068,
85.2273,704,88,48,136,76,180,68,324,386.152,
86.7052,692,80,44,124,76,176,76,328,394.295,
87.2093,688,84,40,124,76,180,72,328,395.439,
86.2069,696,88,44,132,76,180,72,328,393.16,
85.7143,700,80,48,128,76,180,72,328,392.035,
86.7052,692,76,48,124,76,180,68,324,389.486,
86.7052,692,76,48,124,76,180,68,324,389.486,
85.7143,700,80,48,128,72,180,72,324,387.254,
86.2069,696,80,44,124,76,184,68,328,393.16,
86.7052,692,80,44,124,72,176,76,324,389.486,
86.7052,692,76,48,124,72,180,72,324,389.486,
87.7193,684,80,44,124,76,180,72,328,396.594,
87.7193,684,80,44,124,76,184,68,328,396.594,
87.7193,684,84,44,128,76,180,72,328,396.594,
87.2093,688,80,44,124,76,180,72,328,395.439,
85.2273,704,80,48,128,76,184,68,328,390.92,
86.7052,692,84,44,128,80,184,68,332,399.103,
85.7143,700,72,44,116,72,176,76,324,387.254,
85.2273,704,76,48,124,72,180,72,324,386.152,
84.7458,708,80,44,124,76,184,68,328,389.814,
83.7989,716,84,44,128,76,180,72,328,387.63,
82.8729,724,80,44,124,76,180,72,328,385.482,
82.4176,728,76,48,124,76,180,72,328,384.422,
81.9672,732,80,48,128,72,176,76,324,378.695,
82.8729,724,72,44,116,76,180,76,332,390.183,
84.2697,712,72,44,116,76,176,76,328,388.717,
84.7458,708,84,44,128,76,180,72,328,389.814,
85.2273,704,84,44,128,72,180,76,328,390.92,
86.2069,696,84,40,124,80,180,72,332,397.955,
85.7143,700,72,48,120,72,176,76,324,387.254,
86.7052,692,80,40,120,76,184,72,332,399.103,
83.7989,716,76,48,124,72,184,72,328,387.63,
85.7143,700,80,44,124,76,180,76,332,396.816,
85.7143,700,76,44,120,76,184,72,332,396.816,
85.7143,700,80,48,128,76,184,68,328,392.035,
85.7143,700,84,44,128,76,184,72,332,396.816,
84.7458,708,76,48,124,76,180,72,328,389.814,
86.7052,692,72,44,116,76,180,72,328,394.295,
86.7052,692,76,44,120,80,180,72,332,399.103,
85.7143,700,76,48,124,72,180,76,328,392.035,
87.2093,688,76,48,124,76,180,72,328,395.439,
88.2353,680,80,44,124,76,180,76,332,402.609,
88.7574,676,76,48,124,72,180,76,328,398.933,
88.2353,680,76,44,120,76,180,72,328,397.758,
86.7052,692,80,44,124,76,184,72,332,399.103,
87.7193,684,80,44,124,76,180,76,332,401.43,
88.7574,676,80,44,124,76,180,72,328,398.933,
87.7193,684,80,48,128,76,184,68,328,396.594,
86.7052,692,76,48,124,76,180,72,328,394.295,
86.2069,696,80,44,124,76,184,72,332,397.955,
86.2069,696,76,44,120,76,184,72,332,397.955,
85.7143,700,76,44,120,76,184,72,332,396.816,
86.7052,692,80,44,124,76,180,72,328,394.295,
87.7193,684,84,44,128,76,184,72,332,401.43,
88.2353,680,76,44,120,76,180,76,332,402.609,
87.2093,688,80,44,124,76,180,76,332,400.262,
86.2069,696,80,44,124,72,180,76,328,393.16,
87.2093,688,84,44,128,76,180,72,328,395.439,
86.7052,692,84,44,128,76,184,72,332,399.103,
86.7052,692,80,48,128,72,180,76,328,394.295,
86.7052,692,76,48,124,72,180,76,328,394.295,
88.2353,680,80,44,124,76,184,72,332,402.609,
88.7574,676,76,48,124,76,176,76,328,398.933,
87.7193,684,76,48,124,76,184,72,332,401.43,
88.2353,680,80,44,124,76,184,72,332,402.609,
88.2353,680,76,44,120,76,180,76,332,402.609,
88.2353,680,76,44,120,76,184,72,332,402.609,
86.2069,696,80,44,124,76,184,72,332,397.955,
85.7143,700,76,44,120,76,180,76,332,396.816,
86.7052,692,80,44,124,76,184,72,332,399.103,
87.2093,688,80,44,124,76,180,76,332,400.262,
85.7143,700,76,48,124,72,180,76,328,392.035,
87.2093,688,76,44,120,80,180,72,332,400.262,
87.7193,684,84,44,128,76,184,72,332,401.43,
88.2353,680,80,44,124,80,180,72,332,402.609,
87.7193,684,84,44,128,80,180,72,332,401.43,
86.2069,696,76,48,124,76,176,76,328,393.16,
88.2353,680,72,44,116,76,180,76,332,402.609,
88.2353,680,76,48,124,72,176,80,328,397.758,
89.2857,672,80,44,124,76,184,72,332,404.999,
87.7193,684,80,48,128,76,180,72,328,396.594,
87.7193,684,80,44,124,76,180,76,332,401.43,
87.2093,688,76,44,120,76,180,76,332,400.262,
86.2069,696,84,40,124,80,188,68,336,402.749,
84.7458,708,80,44,124,76,184,72,332,394.568,
85.2273,704,84,44,128,76,180,76,332,395.687,
84.7458,708,76,44,120,76,184,72,332,394.568,
85.2273,704,76,48,124,72,180,76,328,390.92,
85.7143,700,84,44,128,80,188,68,336,401.597,
86.2069,696,80,44,124,76,180,76,332,397.955,
87.2093,688,80,44,124,76,184,72,332,400.262,
87.7193,684,76,44,120,76,184,72,332,401.43,
87.7193,684,80,44,124,76,180,76,332,401.43,
87.2093,688,80,48,128,76,176,76,328,395.439,
86.7052,692,72,44,116,72,180,76,328,394.295,
85.2273,704,84,44,128,76,184,72,332,395.687,
83.7989,716,80,44,124,76,180,76,332,392.357,
84.7458,708,80,44,124,76,180,76,332,394.568,
84.2697,712,72,48,120,76,180,76,332,393.458,
83.3333,720,80,48,128,76,180,76,332,391.266,
84.2697,712,76,48,124,76,184,72,332,393.458,
86.2069,696,76,44,120,76,180,76,332,397.955,
86.2069,696,80,40,120,80,184,72,336,402.749,
85.7143,700,80,48,128,72,184,76,332,396.816,
87.7193,684,76,48,124,72,180,76,328,396.594,
87.7193,684,72,48,120,72,184,76,332,401.43,
87.7193,684,80,44,124,76,184,72,332,401.43,
85.7143,700,80,48,128,76,184,72,332,396.816,
86.2069,696,76,44,120,80,184,72,336,402.749,
86.7052,692,84,44,128,76,184,72,332,399.103,
87.7193,684,80,44,124,76,184,72,332,401.43,
88.2353,680,76,44,120,76,180,76,332,402.609,
87.7193,684,80,48,128,76,180,76,332,401.43,
88.7574,676,76,44,120,76,180,80,336,408.664,
88.7574,676,80,48,128,76,184,72,332,403.799,
88.7574,676,80,44,124,76,188,72,336,408.664,
89.2857,672,76,48,124,76,184,76,336,409.878,
89.2857,672,72,48,120,76,180,76,332,404.999,
89.2857,672,72,48,120,72,184,76,332,404.999,
89.2857,672,80,48,128,76,188,72,336,409.878,
88.7574,676,80,48,128,76,184,72,332,403.799,
90.3614,664,80,44,124,76,184,76,336,412.34,
89.2857,672,76,44,120,76,180,76,332,404.999,
88.7574,676,72,48,120,76,180,76,332,403.799,
88.7574,676,84,44,128,76,180,76,332,403.799,
89.8204,668,80,48,128,76,180,76,332,406.209,
89.2857,672,72,48,120,72,180,76,328,400.119,
88.7574,676,76,48,124,72,184,76,332,403.799,
88.7574,676,80,44,124,76,180,76,332,403.799,
88.7574,676,72,48,120,72,184,76,332,403.799,
90.3614,664,80,44,124,80,184,72,336,412.34,
89.2857,672,80,44,124,76,180,76,332,404.999,
89.2857,672,76,48,124,76,180,76,332,404.999,
89.2857,672,76,48,124,76,180,76,332,404.999,
88.2353,680,72,48,120,76,180,76,332,402.609,
85.7143,700,80,48,128,76,184,72,332,396.816,
85.2273,704,80,48,128,72,180,80,332,395.687,
86.2069,696,84,44,128,76,180,76,332,397.955,
86.2069,696,80,48,128,76,184,72,332,397.955,
86.2069,696,80,44,124,76,184,72,332,397.955,
86.7052,692,80,44,124,80,184,72,336,403.912,
86.7052,692,76,48,124,76,180,76,332,399.103,
87.7193,684,80,48,128,72,180,80,332,401.43,
87.2093,688,72,48,120,72,184,76,332,400.262,
87.2093,688,88,40,128,80,184,72,336,405.084,
87.2093,688,84,40,124,80,184,72,336,405.084,
87.2093,688,80,44,124,76,184,76,336,405.084,
86.2069,696,76,44,120,76,180,76,332,397.955,
84.7458,708,80,44,124,76,180,76,332,394.568,
84.2697,712,76,48,124,76,180,76,332,393.458,
83.7989,716,84,44,128,76,180,76,332,392.357,
83.7989,716,76,44,120,76,184,76,336,397.084,
82.8729,724,76,44,120,80,184,72,336,394.884,
82.8729,724,72,44,116,76,184,72,332,390.183,
84.2697,712,76,44,120,76,188,72,336,398.198,
83.7989,716,84,44,128,76,188,72,336,397.084,
82.8729,724,80,44,124,76,180,76,332,390.183,
84.7458,708,76,44,120,76,184,76,336,399.321,
86.2069,696,80,44,124,76,184,76,336,402.749,
86.2069,696,76,48,124,72,180,80,332,397.955,
85.2273,704,80,48,128,76,188,72,336,400.454,
84.7458,708,76,48,124,72,184,76,332,394.568,
86.7052,692,80,40,120,76,184,76,336,403.912,
86.2069,696,72,44,116,76,180,76,332,397.955,
86.2069,696,80,44,124,76,184,76,336,402.749,
86.2069,696,84,44,128,76,180,76,332,397.955,
86.7052,692,72,44,116,76,184,76,336,403.912,
86.7052,692,76,44,120,76,180,76,332,399.103,
85.7143,700,72,48,120,76,184,72,332,396.816,
85.7143,700,84,44,128,76,180,76,332,396.816,
84.2697,712,76,48,124,72,180,80,332,393.458,
84.2697,712,72,48,120,76,184,76,336,398.198,
84.2697,712,80,44,124,76,184,76,336,398.198,
85.7143,700,84,40,124,76,180,76,332,396.816,
87.2093,688,80,44,124,76,184,76,336,405.084,
88.2353,680,80,44,124,80,188,72,340,412.311,
88.2353,680,80,44,124,76,184,76,336,407.46,
88.7574,676,84,44,128,80,184,72,336,408.664,
88.2353,680,80,48,128,76,184,72,332,402.609,
88.7574,676,76,44,120,76,184,76,336,408.664,
86.7052,692,84,44,128,80,184,72,336,403.912,
86.2069,696,80,44,124,72,180,80,332,397.955,
86.2069,696,80,44,124,76,180,76,332,397.955,
84.7458,708,72,48,120,72,184,76,332,394.568,
84.7458,708,80,48,128,76,184,76,336,399.321,
84.7458,708,80,44,124,76,184,76,336,399.321,
84.7458,708,72,48,120,72,180,80,332,394.568,
85.7143,700,76,44,120,80,184,72,336,401.597,
85.7143,700,76,48,124,76,184,76,336,401.597,
87.2093,688,80,44,124,76,184,76,336,405.084,
88.2353,680,80,48,128,76,184,76,336,407.46,
88.2353,680,76,48,124,76,188,72,336,407.46,
88.7574,676,80,44,124,80,188,72,340,413.529,
88.2353,680,80,44,124,76,184,76,336,407.46,
88.7574,676,76,44,120,76,184,76,336,408.664,
88.7574,676,80,44,124,76,184,76,336,408.664,
88.7574,676,76,48,124,76,180,76,332,403.799,
88.2353,680,72,48,120,76,180,76,332,402.609,
87.7193,684,80,48,128,72,180,80,332,401.43,
87.2093,688,76,44,120,76,184,76,336,405.084,
87.2093,688,80,44,124,80,184,72,336,405.084,
87.7193,684,80,48,128,76,188,72,336,406.267,
87.2093,688,84,44,128,76,184,76,336,405.084,
87.2093,688,76,48,124,72,180,80,332,400.262,
87.2093,688,76,48,124,72,184,76,332,400.262,
87.7193,684,84,44,128,72,184,76,332,401.43,
87.7193,684,80,44,124,80,180,76,336,406.267,
87.2093,688,80,48,128,76,184,72,332,400.262,
87.2093,688,76,48,124,76,184,72,332,400.262,
88.2353,680,80,44,124,76,180,80,336,407.46,
87.2093,688,72,48,120,72,180,80,332,400.262,
89.2857,672,76,44,120,76,180,80,336,409.878,
88.2353,680,76,48,124,76,184,76,336,407.46,
89.2857,672,80,44,124,76,184,76,336,409.878,
89.8204,668,76,48,124,76,184,76,336,411.103,
89.8204,668,76,48,124,76,176,80,332,406.209,
88.7574,676,80,48,128,76,184,72,332,403.799,
89.2857,672,80,48,128,76,184,72,332,404.999,
89.8204,668,80,44,124,80,184,72,336,411.103,
88.2353,680,76,44,120,80,180,76,336,407.46,
87.7193,684,80,44,124,76,184,76,336,406.267,
87.7193,684,80,48,128,76,184,72,332,401.43,
88.2353,680,84,44,128,80,180,76,336,407.46,
87.2093,688,84,48,132,76,180,76,332,400.262,
87.2093,688,76,44,120,76,184,76,336,405.084,
87.2093,688,76,44,120,76,184,76,336,405.084,
87.7193,684,80,44,124,76,184,76,336,406.267,
87.2093,688,76,48,124,76,184,72,332,400.262,
86.7052,692,80,48,128,76,188,72,336,403.912,
85.2273,704,84,44,128,76,184,76,336,400.454,
85.7143,700,72,48,120,76,184,72,332,396.816,
85.7143,700,76,44,120,76,184,72,332,396.816,
85.7143,700,76,44,120,76,184,76,336,401.597,
86.7052,692,80,44,124,76,184,76,336,403.912,
86.7052,692,80,48,128,76,184,76,336,403.912,
87.7193,684,84,44,128,80,188,72,340,411.103,
87.7193,684,80,48,128,76,180,76,332,401.43,
87.7193,684,80,48,128,76,184,76,336,406.267,
87.7193,684,80,48,128,76,184,76,336,406.267,
87.7193,684,68,48,116,72,180,80,332,401.43,
87.2093,688,80,48,128,72,184,76,332,400.262,
87.2093,688,80,44,124,76,188,72,336,405.084,
87.2093,688,84,44,128,80,184,72,336,405.084,
87.2093,688,72,48,120,76,184,76,336,405.084,
86.2069,696,76,48,124,76,184,76,336,402.749,
86.2069,696,80,48,128,76,188,72,336,402.749,
87.2093,688,72,48,120,76,180,76,332,400.262,
88.2353,680,80,48,128,76,184,76,336,407.46,
89.2857,672,80,44,124,80,184,72,336,409.878,
88.7574,676,80,48,128,76,184,76,336,408.664,
88.2353,680,80,48,128,76,180,76,332,402.609,
87.7193,684,80,44,124,80,180,76,336,406.267,
87.7193,684,76,44,120,76,180,80,336,406.267,
88.2353,680,84,44,128,76,184,76,336,407.46,
87.2093,688,80,44,124,76,180,80,336,405.084,
86.7052,692,72,52,124,72,180,80,332,399.103,
88.2353,680,80,44,124,76,184,76,336,407.46,
88.2353,680,72,48,120,72,180,80,332,402.609,
89.2857,672,72,44,116,76,180,80,336,409.878,
87.7193,684,76,44,120,76,180,76,332,401.43,
87.7193,684,76,48,124,72,184,76,332,401.43,
87.2093,688,80,44,124,76,180,76,332,400.262,
87.2093,688,80,44,124,76,184,72,332,400.262,
86.2069,696,76,48,124,72,184,76,332,397.955,
84.2697,712,76,48,124,76,184,72,332,393.458,
84.7458,708,76,44,120,80,184,72,336,399.321,
85.2273,704,80,48,128,76,180,76,332,395.687,
86.2069,696,76,48,124,80,184,72,336,402.749,
84.7458,708,76,48,124,72,184,76,332,394.568,
86.2069,696,80,44,124,80,188,72,340,407.544,
85.7143,700,76,48,124,76,180,76,332,396.816,
86.7052,692,80,48,128,72,184,76,332,399.103,
87.7193,684,80,44,124,80,184,72,336,406.267,
86.7052,692,84,44,128,76,184,76,336,403.912,
87.7193,684,76,44,120,76,180,80,336,406.267,
88.7574,676,76,44,120,76,184,76,336,408.664,
88.7574,676,80,44,124,76,184,76,336,408.664,
88.2353,680,84,44,128,76,184,76,336,407.46,
86.7052,692,76,48,124,76,180,76,332,399.103,
86.7052,692,76,48,124,72,184,76,332,399.103,
87.7193,684,84,44,128,76,180,76,332,401.43,
87.2093,688,84,44,128,80,184,72,336,405.084,
87.2093,688,80,48,128,76,184,76,336,405.084,
88.7574,676,84,44,128,80,180,76,336,408.664,
88.2353,680,80,48,128,76,180,76,332,402.609,
88.2353,680,76,44,120,76,180,80,336,407.46,
86.2069,696,76,48,124,72,180,76,328,393.16,
86.2069,696,80,44,124,76,184,76,336,402.749,
85.7143,700,72,48,120,76,176,80,332,396.816,
85.2273,704,76,44,120,80,184,72,336,400.454,
84.2697,712,76,48,124,76,188,72,336,398.198,
84.7458,708,80,48,128,76,180,76,332,394.568,
85.7143,700,84,44,128,80,184,72,336,401.597,
84.7458,708,80,48,128,72,184,76,332,394.568,
83.7989,716,72,48,120,72,184,80,336,397.084,
84.2697,712,76,48,124,76,184,76,336,398.198,
85.2273,704,80,44,124,80,188,72,340,405.222,
84.7458,708,76,48,124,72,184,76,332,394.568,
86.2069,696,80,48,128,80,188,68,336,402.749,
85.2273,704,76,44,120,76,184,72,332,395.687,
86.7052,692,84,44,128,80,184,72,336,403.912,
86.2069,696,76,48,124,72,184,80,336,402.749,
86.2069,696,80,44,124,80,184,72,336,402.749,
85.7143,700,80,44,124,76,184,76,336,401.597,
85.7143,700,72,48,120,76,184,76,336,401.597,
86.7052,692,80,44,124,76,184,76,336,403.912,
86.7052,692,80,48,128,76,184,76,336,403.912,
85.7143,700,80,48,128,76,184,76,336,401.597,
86.2069,696,80,44,124,76,180,80,336,402.749,
86.7052,692,76,44,120,76,184,76,336,403.912,
86.7052,692,76,48,124,76,188,72,336,403.912,
83.7989,716,72,48,120,76,188,72,336,397.084,
83.7989,716,76,44,120,76,184,76,336,397.084,
85.2273,704,72,48,120,72,180,80,332,395.687,
84.2697,712,72,48,120,76,188,72,336,398.198,
82.4176,728,76,48,124,76,184,76,336,393.798,
83.7989,716,76,44,120,80,180,76,336,397.084,
85.2273,704,72,48,120,76,188,72,336,400.454,
85.2273,704,76,48,124,72,180,80,332,395.687,
84.7458,708,80,44,124,76,188,72,336,399.321,
84.2697,712,80,44,124,80,188,72,340,402.939,
84.2697,712,76,48,124,72,188,76,336,398.198,
84.2697,712,76,48,124,72,180,80,332,393.458,
84.7458,708,80,48,128,76,192,68,336,399.321,
86.2069,696,76,44,120,76,184,76,336,402.749,
86.2069,696,80,44,124,76,188,72,336,402.749,
85.7143,700,76,48,124,72,180,80,332,396.816,
85.7143,700,80,44,124,80,192,68,340,406.378,
84.2697,712,80,44,124,80,184,72,336,398.198,
84.7458,708,76,48,124,72,180,80,332,394.568,
84.7458,708,80,48,128,76,180,76,332,394.568,
83.3333,720,84,48,132,76,184,76,336,395.98,
83.7989,716,84,44,128,80,184,72,336,397.084,
84.7458,708,76,48,124,76,188,72,336,399.321,
86.2069,696,80,44,124,76,184,76,336,402.749,
85.7143,700,80,44,124,76,188,72,336,401.597,
86.7052,692,84,44,128,80,184,76,340,408.72,
86.2069,696,76,48,124,72,180,80,332,397.955,
86.2069,696,80,44,124,76,184,76,336,402.749,
85.2273,704,76,48,124,72,180,80,332,395.687,
85.7143,700,80,44,124,80,188,72,340,406.378,
84.7458,708,76,48,124,72,184,76,332,394.568,
86.2069,696,80,44,124,80,184,72,336,402.749,
83.7989,716,76,48,124,76,184,76,336,397.084,
82.8729,724,80,44,124,80,188,72,340,399.585,
83.3333,720,80,44,124,80,180,76,336,395.98,
83.3333,720,80,44,124,80,184,76,340,400.694,
83.7989,716,80,44,124,80,188,72,340,401.812,
83.3333,720,80,44,124,80,188,72,340,400.694,
84.2697,712,72,44,116,80,188,72,340,402.939,
84.2697,712,76,48,124,72,180,80,332,393.458,
86.2069,696,72,48,120,76,188,72,336,402.749,
85.7143,700,72,48,120,76,180,80,336,401.597,
85.2273,704,80,44,124,80,188,72,340,405.222,
83.7989,716,80,48,128,76,184,76,336,397.084,
82.8729,724,80,48,128,76,188,72,336,394.884,
81.5217,736,76,48,124,76,184,76,336,391.652,
81.9672,732,76,44,120,76,184,76,336,392.721,
81.9672,732,76,48,124,76,184,76,336,392.721,
81.5217,736,76,48,124,76,184,76,336,391.652,
81.5217,736,76,44,120,76,184,76,336,391.652,
81.9672,732,80,48,128,76,184,76,336,392.721,
83.7989,716,76,44,120,80,184,76,340,401.812,
82.8729,724,76,44,120,76,184,76,336,394.884,
81.9672,732,72,48,120,76,184,80,340,397.396,
83.3333,720,76,48,124,72,184,80,336,395.98,
85.2273,704,76,44,120,80,188,72,340,405.222,
85.7143,700,76,48,124,72,180,80,332,396.816,
86.2069,696,80,48,128,76,184,76,336,402.749,
86.2069,696,84,48,132,76,184,76,336,402.749,
85.7143,700,72,48,120,76,184,76,336,401.597,
85.2273,704,72,48,120,72,180,84,336,400.454,
83.3333,720,76,52,128,72,184,80,336,395.98,
82.4176,728,76,48,124,76,184,76,336,393.798,
81.9672,732,84,44,128,76,184,76,336,392.721,
83.3333,720,76,48,124,76,184,76,336,395.98,
83.7989,716,76,44,120,80,184,76,340,401.812,
81.9672,732,80,44,124,76,180,80,336,392.721,
82.4176,728,80,44,124,76,184,80,340,398.486,
83.3333,720,76,48,124,76,184,76,336,395.98,
83.7989,716,76,48,124,76,184,80,340,401.812,
82.4176,728,72,48,120,76,184,76,336,393.798,
84.2697,712,76,48,124,76,184,76,336,398.198,
85.7143,700,72,48,120,72,188,76,336,401.597,
85.7143,700,84,44,128,76,188,76,340,406.378,
86.2069,696,72,48,120,72,184,80,336,402.749,
87.7193,684,76,44,120,76,188,76,340,411.103,
87.7193,684,72,44,116,76,188,76,340,411.103,
86.7052,692,76,48,124,76,184,76,336,403.912,
85.2273,704,76,44,120,76,188,76,340,405.222,
84.2697,712,76,48,124,76,184,76,336,398.198,
84.7458,708,80,48,128,76,184,76,336,399.321,
85.2273,704,76,48,124,76,188,72,336,400.454,
85.7143,700,80,48,128,76,184,76,336,401.597,
86.2069,696,76,48,124,76,184,76,336,402.749,
87.2093,688,80,44,124,76,188,76,340,409.906,
87.2093,688,80,48,128,76,180,80,336,405.084,
87.2093,688,80,48,128,76,184,76,336,405.084,
88.7574,676,80,48,128,76,188,76,340,413.529,
88.7574,676,84,44,128,76,184,80,340,413.529,
88.2353,680,84,48,132,76,184,76,336,407.46,
87.2093,688,72,48,120,76,184,76,336,405.084,
85.7143,700,80,48,128,76,184,76,336,401.597,
86.7052,692,84,44,128,76,180,80,336,403.912,
87.7193,684,76,48,124,76,184,76,336,406.267,
88.2353,680,80,44,124,76,188,76,340,412.311,
86.7052,692,80,44,124,76,184,76,336,403.912,
88.2353,680,76,48,124,76,180,80,336,407.46,
88.7574,676,72,44,116,76,180,80,336,408.664,
89.2857,672,76,48,124,76,184,76,336,409.878,
89.2857,672,80,48,128,80,188,72,340,414.758,
89.2857,672,80,48,128,80,188,72,340,414.758,
89.2857,672,76,48,124,72,180,80,332,404.999,
90.3614,664,76,48,124,76,188,76,340,417.249,
88.2353,680,84,48,132,76,184,72,332,402.609,
88.7574,676,84,44,128,80,184,72,336,408.664,
88.2353,680,84,44,128,76,180,80,336,407.46,
89.2857,672,76,48,124,76,184,76,336,409.878,
88.7574,676,76,44,120,80,184,72,336,408.664,
88.2353,680,80,48,128,80,184,72,336,407.46,
88.7574,676,76,48,124,76,184,76,336,408.664,
89.2857,672,80,48,128,76,184,76,336,409.878,
88.7574,676,76,48,124,72,180,80,332,403.799,
88.2353,680,80,48,128,76,184,76,336,407.46,
87.7193,684,84,48,132,76,184,76,336,406.267,
88.2353,680,76,48,124,76,184,76,336,407.46,
89.2857,672,76,48,124,76,184,76,336,409.878,
88.7574,676,80,48,128,76,184,72,332,403.799,
87.7193,684,80,48,128,76,184,76,336,406.267,
87.7193,684,76,44,120,76,180,80,336,406.267,
88.2353,680,72,48,120,76,176,80,332,402.609,
87.2093,688,76,48,124,72,184,76,332,400.262,
87.2093,688,84,44,128,76,188,72,336,405.084,
86.7052,692,84,44,128,80,184,72,336,403.912,
86.7052,692,76,48,124,72,184,80,336,403.912,
86.2069,696,76,48,124,76,184,72,332,397.955,
85.7143,700,76,48,124,76,184,76,336,401.597,
85.7143,700,80,44,124,80,188,72,340,406.378,
86.2069,696,80,44,124,76,184,76,336,402.749,
87.2093,688,72,48,120,76,180,76,332,400.262,
87.2093,688,76,48,124,76,184,76,336,405.084,
86.7052,692,76,48,124,76,184,76,336,403.912,
86.7052,692,76,48,124,76,180,76,332,399.103,
86.2069,696,76,48,124,72,180,80,332,397.955,
86.2069,696,80,48,128,76,184,76,336,402.749,
84.7458,708,76,48,124,76,184,72,332,394.568,
84.7458,708,80,52,132,72,180,80,332,394.568,
85.2273,704,80,40,120,80,188,72,340,405.222,
84.2697,712,80,44,124,80,188,72,340,402.939,
84.2697,712,72,48,120,76,188,76,340,402.939,
83.7989,716,76,48,124,76,180,76,332,392.357,
86.2069,696,76,48,124,80,184,72,336,402.749,
87.2093,688,76,48,124,76,184,76,336,405.084,
87.7193,684,84,44,128,76,184,76,336,406.267,
86.7052,692,76,48,124,72,180,80,332,399.103,
88.2353,680,72,48,120,76,176,80,332,402.609,
87.7193,684,72,48,120,72,180,80,332,401.43,
87.2093,688,84,44,128,76,180,76,332,400.262,
84.7458,708,76,48,124,76,180,76,332,394.568,
83.7989,716,72,48,120,76,180,80,336,397.084,
82.8729,724,76,48,124,76,180,80,336,394.884,
81.0811,740,72,48,120,76,184,76,336,390.592,
79.7872,752,76,48,124,76,188,76,340,392.076,
80.6452,744,72,48,120,76,188,76,340,394.178,
80.6452,744,76,48,124,80,184,76,340,394.178,
82.4176,728,76,48,124,76,184,76,336,393.798,
82.4176,728,72,52,124,72,180,80,332,389.11,
83.3333,720,72,48,120,76,184,76,336,395.98,
83.3333,720,76,48,124,72,180,80,332,391.266,
84.2697,712,80,44,124,76,184,76,336,398.198,
84.2697,712,80,44,124,80,188,72,340,402.939,
85.2273,704,80,44,124,76,184,76,336,400.454,
87.2093,688,80,44,124,80,184,76,340,409.906,
86.7052,692,80,48,128,76,184,76,336,403.912,
87.7193,684,80,48,128,76,184,76,336,406.267,
86.7052,692,72,48,120,76,184,76,336,403.912,
88.2353,680,76,48,124,76,180,80,336,407.46,
89.8204,668,76,44,120,80,180,76,336,411.103,
91.4634,656,76,48,124,76,180,76,332,409.908,
89.2857,672,76,32,108,76,168,80,324,395.24,
91.4634,656,72,44,116,76,176,84,336,414.846,
88.7574,676,72,48,120,76,180,76,332,403.799,
92.0245,652,68,48,116,76,184,80,340,421.071,
92.5926,648,72,48,120,72,184,80,336,417.399,
93.75,640,68,52,120,72,180,80,332,415,
96.7742,620,72,48,120,76,180,80,336,426.72,
96.7742,620,60,52,112,72,180,80,332,421.64,
98.6842,608,72,48,120,72,180,80,332,425.781,
99.3377,604,64,52,116,72,176,80,328,422.042,
101.351,592,60,48,108,72,176,84,332,431.496,
101.351,592,72,48,120,72,172,84,328,426.298,
102.74,584,72,52,124,72,176,76,324,423.973,
104.167,576,64,52,116,72,172,80,324,426.907,
104.167,576,64,52,116,68,176,76,320,421.637,
105.634,568,68,48,116,68,176,76,320,424.596,
106.383,564,68,48,116,72,176,76,324,431.425,
106.383,564,64,44,108,72,180,76,328,436.751,
106.383,564,68,44,112,68,176,76,320,426.099,
107.914,556,60,44,104,72,172,76,320,429.153,
107.143,560,60,44,104,72,172,72,316,422.273,
108.696,552,76,48,124,72,172,76,320,430.706,
107.914,556,64,48,112,68,172,76,316,423.789,
109.489,548,56,64,120,68,176,80,324,437.678,
109.489,548,64,56,120,64,168,84,316,426.871,
111.111,540,64,60,124,64,164,84,312,424.578,
111.94,536,60,48,108,68,176,72,316,431.623,
111.94,536,60,52,112,68,172,76,316,431.623,
111.94,536,68,48,116,68,168,76,312,426.16,
111.94,536,64,48,112,68,168,76,312,426.16,
111.94,536,68,48,116,68,168,76,312,426.16,
110.294,544,56,48,104,68,164,76,308,417.591,
108.696,552,64,44,108,64,164,84,312,419.938,
108.696,552,68,40,108,68,176,76,320,430.706,
108.696,552,60,44,104,68,172,80,320,430.706,
107.914,556,68,48,116,68,176,76,320,429.153,
107.914,556,64,44,108,68,176,80,324,434.518,
107.914,556,64,48,112,68,172,80,320,429.153,
107.914,556,56,48,104,68,172,80,320,429.153,
107.143,560,64,48,112,68,172,80,320,427.618,
107.143,560,64,44,108,68,168,80,316,422.273,
107.914,556,64,44,108,68,160,88,316,423.789,
106.383,564,64,44,108,68,172,80,320,426.099,
107.914,556,60,44,104,68,176,80,324,434.518,
107.143,560,60,44,104,68,168,84,320,427.618,
107.914,556,60,44,104,68,164,84,316,423.789,
107.143,560,64,44,108,68,172,76,316,422.273,
108.696,552,68,44,112,72,172,76,320,430.706,
108.696,552,60,48,108,68,176,72,316,425.322,
109.489,548,68,48,116,68,168,80,316,426.871,
110.294,544,64,48,112,68,172,76,316,428.438,
110.294,544,60,52,112,68,172,72,312,423.014,
111.111,540,56,48,104,68,160,84,312,424.578,
110.294,544,68,48,116,68,172,76,316,428.438,
109.489,548,64,48,112,64,172,76,312,421.468,
108.696,552,64,48,112,64,168,80,312,419.938,
107.143,560,60,52,112,68,172,76,316,422.273,
105.634,568,60,48,108,68,176,76,320,424.596,
105.634,568,64,44,108,72,176,76,324,429.903,
104.167,576,68,44,112,72,172,76,320,421.637,
104.167,576,60,48,108,72,176,76,324,426.907,
104.895,572,64,44,108,72,172,80,324,428.398,
104.895,572,68,40,108,72,168,80,320,423.109,
104.895,572,60,48,108,68,168,80,316,417.82,
106.383,564,60,48,108,68,164,84,316,420.773,
106.383,564,60,48,108,68,164,80,312,415.446,
108.696,552,56,48,104,68,164,80,312,419.938,
108.696,552,52,48,100,68,168,76,312,419.938,
110.294,544,64,52,116,68,172,76,316,428.438,
110.294,544,56,48,104,68,164,80,312,423.014,
111.111,540,"","","",68,168,76,312,424.578,
113.636,528,52,52,104,68,164,76,308,423.871,
113.636,528,64,48,112,68,164,76,308,423.871,
113.636,528,64,48,112,68,168,72,308,423.871,
114.504,524,64,52,116,68,160,76,304,419.96,
112.782,532,72,44,116,72,168,72,312,427.759,
111.94,536,60,48,108,68,164,76,308,420.696,
111.111,540,68,48,116,64,160,80,304,413.692,
110.294,544,64,44,108,68,160,76,304,412.168,
110.294,544,64,40,104,68,168,76,312,423.014,
109.489,548,60,48,108,68,164,76,308,416.064,
110.294,544,64,44,108,68,164,76,308,417.591,
110.294,544,64,44,108,68,168,76,312,423.014,
110.294,544,60,48,108,64,160,80,304,412.168,
111.94,536,64,40,104,68,164,80,312,426.16,
110.294,544,60,48,108,64,160,80,304,412.168,
111.94,536,68,44,112,68,164,76,308,420.696,
111.94,536,60,44,104,68,164,76,308,420.696,
111.94,536,64,48,112,68,160,76,304,415.232,
112.782,532,64,44,108,68,168,72,308,422.275,
113.636,528,60,44,104,68,168,72,308,423.871,
113.636,528,64,44,108,68,164,76,308,423.871,
113.636,528,56,52,108,64,164,76,304,418.366,
114.504,524,52,52,104,64,164,76,304,419.96,
116.279,516,60,48,108,68,160,76,304,423.203,
115.385,520,56,48,104,68,168,72,308,427.119,
116.279,516,56,48,104,68,164,76,308,428.771,
117.188,512,60,40,100,68,164,76,308,430.443,
116.279,516,56,44,100,68,160,76,304,423.203,
117.188,512,56,44,100,68,164,72,304,424.853,
118.11,508,56,48,104,68,160,76,304,426.522,
118.11,508,60,44,104,68,164,72,304,426.522,
118.11,508,56,44,100,68,164,72,304,426.522,
118.11,508,52,48,100,68,160,76,304,426.522,
118.11,508,60,44,104,68,156,76,300,420.91,
118.11,508,52,44,96,64,160,80,304,426.522,
119.048,504,56,40,96,68,168,76,312,439.48,
118.11,508,60,44,104,68,164,76,308,432.134,
119.048,504,56,40,96,68,164,76,308,433.846,
118.11,508,48,48,96,68,160,80,308,432.134,
118.11,508,60,44,104,68,164,76,308,432.134,
120,500,52,44,96,68,164,76,308,435.578,
118.11,508,60,48,108,64,164,76,304,426.522,
120,500,60,40,100,68,168,72,308,435.578,
119.048,504,56,44,100,68,164,72,304,428.211,
119.048,504,60,44,104,68,164,72,304,428.211,
119.048,504,64,40,104,64,164,76,304,428.211,
119.048,504,60,44,104,68,160,76,304,428.211,
119.048,504,60,40,100,68,164,72,304,428.211,
119.048,504,60,44,104,68,152,80,300,422.577,
119.048,504,60,44,104,68,164,72,304,428.211,
119.048,504,52,44,96,68,160,76,304,428.211,
118.11,508,64,48,112,64,156,80,300,420.91,
120,500,60,40,100,68,168,72,308,435.578,
119.048,504,52,44,96,68,160,76,304,428.211,
118.11,508,60,44,104,68,160,72,300,420.91,
119.048,504,52,44,96,68,160,80,308,433.846,
118.11,508,56,44,100,68,160,72,300,420.91,
119.048,504,56,44,100,68,156,80,304,428.211,
119.048,504,56,40,96,68,168,72,308,433.846,
118.11,508,52,48,100,68,160,76,304,426.522,
120,500,56,40,96,68,164,72,304,429.921,
120,500,56,44,100,68,164,72,304,429.921,
119.048,504,60,44,104,64,164,72,300,422.577,
120.968,496,60,44,104,68,160,72,300,425.971,
122.951,488,56,44,100,68,160,72,300,429.449,
119.048,504,64,44,108,64,156,72,292,411.308,
120,500,60,40,100,68,156,72,296,418.607,
118.11,508,68,44,112,64,156,72,292,409.686,
114.504,524,64,48,112,68,164,68,300,414.434,
111.94,536,60,40,100,68,160,72,300,409.769,
111.94,536,60,44,104,68,156,72,296,404.305,
111.111,540,56,40,96,68,164,72,304,413.692,
110.294,544,64,44,108,64,156,76,296,401.321,
111.111,540,60,40,100,68,164,72,304,413.692,
111.94,536,60,44,104,68,156,76,300,409.769,
112.782,532,60,36,96,68,160,76,304,416.79,
111.94,536,60,44,104,64,160,76,300,409.769,
113.636,528,60,44,104,64,156,76,296,407.357,
115.385,520,56,44,100,68,156,76,300,416.025,
114.504,524,52,48,100,64,152,80,296,408.908,
116.279,516,56,44,100,68,152,80,300,417.635,
116.279,516,56,44,100,68,156,76,300,417.635,
117.188,512,56,40,96,68,160,72,300,419.263,
118.11,508,32,52,84,68,156,76,300,420.91,
118.11,508,56,48,104,68,152,76,296,415.298,
119.048,504,52,44,96,68,156,72,296,416.943,
120,500,48,44,92,68,156,72,296,418.607,
121.951,492,20,44,64,72,156,68,296,421.997,
120,500,64,40,104,64,156,72,292,412.95,
120.968,496,64,44,108,68,152,72,292,414.612,
120.968,496,76,44,120,68,156,68,292,414.612,
116.279,516,64,36,100,68,156,72,296,412.066,
113.636,528,60,40,100,68,148,76,292,401.852,
112.782,532,64,56,120,64,152,76,292,400.338,
109.489,548,76,56,132,68,164,72,304,410.661,
100.671,596,56,64,120,76,156,72,304,393.777,
97.4026,616,"","","",76,148,80,304,387.332,
87.7193,684,64,44,108,68,168,72,308,372.411,
80.2139,748,64,44,108,80,168,72,320,369.998,
82.8729,724,68,44,112,72,168,76,316,371.379,
86.7052,692,64,44,108,72,168,72,312,375.061,
78.125,768,72,44,116,72,164,76,312,356.02,
71.4286,840,64,44,108,72,172,72,316,344.784,
73.8916,812,68,44,112,76,168,72,316,350.678,
75.3769,796,72,40,112,76,172,72,320,358.669,
78.9474,760,72,40,112,76,172,72,320,367.065,
80.6452,744,72,44,116,72,172,68,312,361.716,
85.7143,700,68,44,112,76,172,68,316,377.692,
88.2353,680,68,44,112,72,164,76,312,378.356,
88.2353,680,72,44,116,76,168,68,312,378.356,
87.7193,684,72,44,116,72,172,68,312,377.248,
85.7143,700,68,48,116,76,168,68,312,372.911,
84.2697,712,64,48,112,76,172,64,312,369.755,
83.7989,716,72,44,116,72,172,68,312,368.721,
83.7989,716,68,44,112,76,172,68,316,373.448,
82.8729,724,68,44,112,72,172,68,312,366.678,
83.7989,716,68,44,112,72,172,68,312,368.721,
85.7143,700,68,44,112,72,172,68,312,372.911,
84.2697,712,72,40,112,72,172,68,312,369.755,
82.8729,724,72,40,112,76,172,64,312,366.678,
82.8729,724,76,40,116,76,176,64,316,371.379,
83.3333,720,68,44,112,72,172,64,308,362.981,
85.2273,704,68,44,112,72,172,68,312,371.85,
84.7458,708,68,44,112,72,168,68,308,366.045,
84.7458,708,72,44,116,72,172,68,312,370.798,
85.7143,700,68,40,108,76,176,64,316,377.692,
87.2093,688,72,44,116,72,172,68,312,376.149,
89.8204,668,64,44,108,72,172,68,312,381.739,
89.2857,672,68,44,112,76,168,68,312,380.601,
90.3614,664,68,44,112,72,172,68,312,382.887,
92.0245,652,68,44,112,72,172,68,312,386.394,
94.9367,632,68,44,112,72,172,68,312,392.461,
96.7742,620,68,44,112,72,172,68,312,396.24,
96.1538,624,72,44,116,68,164,76,308,389.905,
97.4026,616,68,48,116,72,164,72,308,392.428,
98.6842,608,68,44,112,72,156,80,308,395.002,
98.6842,608,68,48,116,72,160,72,304,389.872,
98.6842,608,72,48,120,72,164,68,304,389.872,
97.4026,616,68,48,116,72,160,76,308,392.428,
93.1677,644,72,48,120,72,164,72,308,383.802,
94.3396,636,72,44,116,72,172,68,312,391.224,
94.3396,636,68,48,116,72,172,68,312,391.224,
93.1677,644,72,44,116,72,168,68,308,383.802,
92.5926,648,68,48,116,72,168,68,308,382.616,
93.1677,644,72,44,116,72,172,68,312,388.787,
93.75,640,68,48,116,72,176,64,312,390,
93.75,640,68,48,116,72,172,68,312,390,
94.3396,636,72,44,116,72,164,72,308,386.209,
94.9367,632,72,44,116,72,168,72,312,392.461,
94.3396,636,72,48,120,72,168,68,308,386.209,
96.1538,624,72,44,116,72,168,68,308,389.905,
96.7742,620,64,48,112,72,168,72,312,396.24,
94.9367,632,72,48,120,72,164,68,304,382.398,
96.7742,620,72,44,116,72,164,72,308,391.16,
96.1538,624,68,48,116,72,168,68,308,389.905,
97.4026,616,72,44,116,72,164,76,312,397.525,
96.1538,624,72,48,120,72,160,76,308,389.905,
96.7742,620,68,44,112,72,168,72,312,396.24,
94.9367,632,68,44,112,72,168,72,312,392.461,
93.75,640,68,48,116,72,172,64,308,385,
94.9367,632,68,48,116,72,172,68,312,392.461,
94.9367,632,72,44,116,72,168,68,308,387.429,
95.5414,628,72,44,116,72,168,72,312,393.708,
94.9367,632,68,48,116,68,164,76,308,387.429,
95.5414,628,72,48,120,72,168,68,308,388.661,
96.7742,620,64,44,108,72,172,68,312,396.24,
97.4026,616,72,44,116,72,164,72,308,392.428,
97.4026,616,68,44,112,72,164,76,312,397.525,
96.7742,620,68,48,116,72,168,68,308,391.16,
96.7742,620,72,44,116,72,168,72,312,396.24,
96.7742,620,68,48,116,72,164,72,308,391.16,
96.7742,620,68,44,112,72,164,76,312,396.24,
96.1538,624,68,48,116,72,164,72,308,389.905,
95.5414,628,68,48,116,72,168,68,308,388.661,
95.5414,628,68,44,112,72,172,68,312,393.708,
97.4026,616,68,48,116,72,172,68,312,397.525,
99.3377,604,68,48,116,68,164,76,308,396.307,
100,600,68,48,116,68,164,72,304,392.462,
100,600,72,48,120,68,164,72,304,392.462,
100,600,68,44,112,72,160,76,308,397.626,
98.6842,608,64,48,112,72,164,72,308,395.002,
98.6842,608,68,44,112,72,160,76,308,395.002,
98.0392,612,68,48,116,72,168,68,308,393.709,
98.0392,612,68,48,116,72,160,72,304,388.596,
96.7742,620,68,44,112,72,168,72,312,396.24,
96.7742,620,72,44,116,72,168,72,312,396.24,
98.0392,612,64,48,112,72,160,72,304,388.596,
98.0392,612,68,44,112,72,168,72,312,398.822,
97.4026,616,68,48,116,72,164,72,308,392.428,
97.4026,616,72,44,116,72,164,72,308,392.428,
96.7742,620,64,48,112,72,164,72,308,391.16,
96.7742,620,64,48,112,72,172,68,312,396.24,
96.1538,624,68,48,116,68,168,72,308,389.905,
99.3377,604,76,44,120,72,168,72,312,401.454,
100,600,72,48,120,76,164,76,316,407.954,
102.041,588,64,48,112,72,164,76,312,406.88,
102.74,584,64,48,112,68,164,76,308,403.036,
104.895,572,72,48,120,72,172,68,312,412.531,
104.895,572,68,48,116,72,164,72,308,407.242,
104.895,572,68,44,112,72,160,76,308,407.242,
104.167,576,72,48,120,68,168,76,312,411.096,
103.448,580,72,48,120,72,168,68,308,404.424,
103.448,580,72,44,116,72,168,72,312,409.676,
103.448,580,72,48,120,68,164,76,308,404.424,
104.167,576,64,52,116,72,164,72,308,405.826,
102.74,584,72,48,120,72,164,72,308,403.036,
102.74,584,72,48,120,76,164,72,312,408.271,
100,600,68,52,120,72,168,72,312,402.79,
99.3377,604,72,52,124,72,168,72,312,401.454,
99.3377,604,72,48,120,72,156,80,308,396.307,
100,600,68,48,116,68,164,76,308,397.626,
101.351,592,68,52,120,72,168,72,312,405.503,
102.041,588,64,48,112,72,160,80,312,406.88,
101.351,592,68,48,116,68,160,80,308,400.304,
102.041,588,72,52,124,72,160,76,308,401.663,
102.041,588,72,48,120,72,168,72,312,406.88,
100.671,596,68,48,116,68,164,76,308,398.958,
102.74,584,64,48,112,72,160,76,308,403.036,
101.351,592,68,48,116,72,164,72,308,400.304,
102.041,588,72,48,120,72,164,76,312,406.88,
102.041,588,68,48,116,68,164,80,312,406.88,
102.041,588,68,48,116,72,164,72,308,401.663,
100.671,596,68,48,116,76,168,68,312,404.14,
99.3377,604,76,56,132,76,164,68,308,396.307,
99.3377,604,76,44,120,72,164,72,308,396.307,
100,600,68,44,112,76,168,68,312,402.79,
98.6842,608,68,44,112,72,148,88,308,395.002,
100,600,64,48,112,68,172,68,308,397.626,
102.041,588,60,44,104,72,160,72,304,396.447,
101.351,592,64,48,112,68,172,68,308,400.304,
103.448,580,76,48,124,72,168,72,312,409.676,
104.167,576,72,48,120,72,168,68,308,405.826,
103.448,580,64,52,116,68,168,72,308,404.424,
104.895,572,68,48,116,72,168,68,308,407.242,
104.895,572,40,56,96,68,160,76,304,401.953,
102.74,584,68,48,116,72,164,76,312,408.271,
102.74,584,60,40,100,72,160,76,308,403.036,
100,600,80,48,128,72,164,72,308,397.626,
101.351,592,68,48,116,76,164,76,316,410.701,
99.3377,604,80,48,128,76,160,72,308,396.307,
98.6842,608,68,48,116,72,164,72,308,395.002,
98.6842,608,68,44,112,72,164,80,316,405.261,
98.0392,612,72,44,116,72,164,76,312,398.822,
98.6842,608,72,44,116,72,164,76,312,400.132,
98.6842,608,64,48,112,68,164,76,308,395.002,
100,600,72,44,116,72,156,88,316,407.954,
99.3377,604,68,44,112,72,160,76,308,396.307,
99.3377,604,64,44,108,72,156,84,312,401.454,
100.671,596,64,44,108,72,164,76,312,404.14,
102.041,588,64,44,108,72,168,72,312,406.88,
102.74,584,68,48,116,72,172,72,316,413.505,
104.167,576,64,48,112,72,168,72,312,411.096,
105.634,568,72,44,116,72,164,72,308,408.674,
105.634,568,60,48,108,68,164,76,308,408.674,
106.383,564,68,52,120,68,168,72,308,410.12,
106.383,564,64,48,112,68,160,76,304,404.794,
106.383,564,64,48,112,72,160,76,308,410.12,
104.895,572,56,48,104,68,164,76,308,407.242,
104.895,572,68,48,116,68,164,72,304,401.953,
103.448,580,60,48,108,68,156,84,308,404.424,
103.448,580,64,44,108,68,164,76,308,404.424,
102.74,584,64,44,108,72,168,64,304,397.802,
100,600,68,48,116,68,164,76,308,397.626,
102.041,588,64,48,112,68,164,80,312,406.88,
102.74,584,64,44,108,72,168,72,312,408.271,
102.041,588,68,44,112,68,168,72,308,401.663,
103.448,580,64,48,112,72,164,76,312,409.676,
103.448,580,64,44,108,72,168,72,312,409.676,
103.448,580,68,48,116,68,164,76,308,404.424,
104.167,576,64,48,112,68,172,72,312,411.096,
104.895,572,68,44,112,72,172,68,312,412.531,
104.167,576,64,48,112,68,164,76,308,405.826,
103.448,580,64,48,112,72,164,76,312,409.676,
102.041,588,64,44,108,68,164,76,308,401.663,
101.351,592,68,48,116,72,168,72,312,405.503,
100.671,596,64,44,108,72,168,72,312,404.14,
100,600,68,44,112,76,176,72,324,418.282,
101.351,592,72,48,120,72,172,72,316,410.701,
102.041,588,68,44,112,72,172,72,316,412.096,
102.041,588,68,44,112,72,160,76,308,401.663,
102.74,584,64,44,108,68,160,80,308,403.036,
103.448,580,64,44,108,72,160,72,304,399.172,
104.895,572,64,52,116,76,172,68,316,417.82,
104.895,572,64,44,108,68,168,68,304,401.953,
107.143,560,64,48,112,72,168,72,312,416.928,
107.143,560,64,48,112,68,164,76,308,411.582,
107.914,556,60,48,108,68,164,72,304,407.696,
109.489,548,64,44,108,68,160,76,304,410.661,
109.489,548,68,48,116,68,160,76,304,410.661,
109.489,548,64,48,112,68,160,72,300,405.257,
109.489,548,64,48,112,68,164,72,304,410.661,
110.294,544,68,48,116,68,160,76,304,412.168,
110.294,544,60,48,108,68,160,76,304,412.168,
109.489,548,68,48,116,68,168,72,308,416.064,
110.294,544,64,48,112,68,160,72,300,406.745,
110.294,544,64,44,108,68,160,76,304,412.168,
110.294,544,68,44,112,72,160,72,304,412.168,
109.489,548,64,48,112,68,160,72,300,405.257,
111.111,540,52,48,100,68,164,76,308,419.135,
110.294,544,68,48,116,68,160,76,304,412.168,
111.111,540,56,44,100,68,160,76,304,413.692,
111.111,540,56,48,104,68,164,72,304,413.692,
111.111,540,44,52,96,68,160,72,300,408.248,
112.782,532,64,44,108,68,160,72,300,411.306,
112.782,532,60,44,104,68,156,76,300,411.306,
112.782,532,64,44,108,68,160,76,304,416.79,
111.94,536,64,48,112,68,164,68,300,409.769,
114.504,524,64,52,116,68,164,68,300,414.434,
113.636,528,48,40,88,68,160,76,304,418.366,
114.504,524,60,56,116,72,160,72,304,419.96,
113.636,528,60,48,108,68,164,68,300,412.861,
114.504,524,60,48,108,68,160,72,300,414.434,
114.504,524,64,48,112,64,164,72,300,414.434,
115.385,520,60,48,108,64,164,72,300,416.025,
115.385,520,48,52,100,68,164,68,300,416.025,
115.385,520,76,40,116,68,168,68,304,421.572,
115.385,520,68,48,116,64,168,72,304,421.572,
116.279,516,60,48,108,64,164,72,300,417.635,
116.279,516,60,48,108,64,168,72,304,423.203,
116.279,516,68,44,112,64,164,72,300,417.635,
118.11,508,68,44,112,72,164,68,304,426.522,
117.188,512,56,48,104,64,160,76,300,419.263,
118.11,508,60,48,108,68,168,68,304,426.522,
117.188,512,"","","",68,164,72,304,424.853,
116.279,516,64,48,112,64,172,68,304,423.203,
117.188,512,60,48,108,68,160,72,300,419.263,
116.279,516,56,48,104,68,164,72,304,423.203,
114.504,524,60,44,104,68,160,76,304,419.96,
112.782,532,48,44,92,68,164,76,308,422.275,
111.94,536,56,44,100,68,160,76,304,415.232,
109.489,548,64,44,108,68,164,76,308,416.064,
107.914,556,64,44,108,68,172,72,312,418.425,
109.489,548,60,48,108,64,160,80,304,410.661,
109.489,548,64,44,108,68,160,76,304,410.661,
110.294,544,68,40,108,68,160,76,304,412.168,
111.94,536,56,44,100,72,160,76,308,420.696,
111.94,536,64,40,104,68,156,80,304,415.232,
112.782,532,68,44,112,68,164,76,308,422.275,
113.636,528,64,44,108,72,156,76,304,418.366,
112.782,532,64,44,108,68,156,80,304,416.79,
111.111,540,60,40,100,72,160,72,304,413.692,
111.94,536,64,44,108,68,160,72,300,409.769,
113.636,528,64,44,108,68,164,76,308,423.871,
112.782,532,56,44,100,68,160,76,304,416.79,
113.636,528,68,44,112,64,160,80,304,418.366,
112.782,532,68,44,112,64,156,80,300,411.306,
115.385,520,64,44,108,72,156,72,300,416.025,
116.279,516,72,40,112,68,152,80,300,417.635,
115.385,520,64,40,104,72,148,80,300,416.025,
115.385,520,64,40,104,68,152,76,296,410.478,
116.279,516,60,44,104,68,144,84,296,412.066,
118.11,508,56,44,100,68,136,80,284,398.462,
118.11,508,80,40,120,68,156,80,304,426.522,
118.11,508,64,52,116,72,164,64,300,420.91,
118.11,508,72,44,116,68,160,68,296,415.298,
119.048,504,68,44,112,68,168,64,300,422.577,
119.048,504,68,48,116,64,168,68,300,422.577,
120,500,64,44,108,64,168,68,300,424.264,
120,500,60,44,104,68,164,68,300,424.264,
120,500,60,44,104,64,160,72,296,418.607,
120.968,496,60,44,104,68,160,72,300,425.971,
119.048,504,56,44,100,68,160,68,296,416.943,
120,500,60,44,104,64,160,72,296,418.607,
120.968,496,56,44,100,68,156,68,292,414.612,
120,500,56,40,96,68,156,72,296,418.607,
120,500,56,40,96,68,160,72,300,424.264,
119.048,504,60,40,100,68,164,68,300,422.577,
120.968,496,60,44,104,68,168,68,304,431.651,
119.048,504,60,48,108,68,164,68,300,422.577,
120.968,496,72,44,116,64,164,64,292,414.612,
122.951,488,68,44,112,72,164,64,300,429.449,
121.951,492,68,44,112,68,160,68,296,421.997,
121.951,492,76,40,116,68,160,68,296,421.997,
120.968,496,80,44,124,68,156,72,296,420.292,
120.968,496,72,44,116,68,160,68,296,420.292,
120,500,72,48,120,64,156,72,292,412.95,
120.968,496,64,40,104,64,156,72,292,414.612,
119.048,504,72,48,120,64,156,72,292,411.308,
117.188,512,64,48,112,68,152,72,292,408.082,
113.636,528,60,44,104,68,160,72,300,412.861,
108.696,552,60,48,108,68,160,72,300,403.786,
107.143,560,60,44,104,68,160,72,300,400.892,
107.143,560,64,44,108,68,156,72,296,395.547,
106.383,564,64,40,104,68,164,68,300,399.468,
107.143,560,64,48,112,68,164,68,300,400.892,
111.94,536,72,44,116,68,156,76,300,409.769,
110.294,544,60,48,108,68,156,76,300,406.745,
112.782,532,68,44,112,68,156,72,296,405.822,
113.636,528,56,48,104,68,160,76,304,418.366,
114.504,524,"","","",68,160,72,300,414.434,
114.504,524,60,44,104,68,156,72,296,408.908,
114.504,524,56,48,104,68,152,72,292,403.383,
115.385,520,64,44,108,68,152,72,292,404.931,
116.279,516,68,56,124,68,156,68,292,406.498,
114.504,524,84,48,132,64,160,68,292,403.383,
117.188,512,68,40,108,68,156,72,296,413.673,
116.279,516,52,48,100,68,156,68,292,406.498,
116.279,516,60,44,104,68,152,68,288,400.929,
117.188,512,56,44,100,72,156,64,292,408.082,
118.11,508,64,48,112,68,156,68,292,409.686,
119.048,504,56,40,96,68,156,68,292,411.308,
119.048,504,60,44,104,68,160,68,296,416.943,
119.048,504,64,44,108,64,160,72,296,416.943,
120,500,68,44,112,68,144,76,288,407.294,
120,500,48,60,108,64,144,72,280,395.98,
120.968,496,60,44,104,68,148,64,280,397.573,
119.048,504,28,44,72,68,148,68,284,400.04,
118.11,508,68,36,104,68,160,68,296,415.298,
112.782,532,56,40,96,64,144,84,292,400.338,
108.696,552,72,40,112,68,152,72,292,393.019,
110.294,544,64,44,108,68,172,60,300,406.745,
108.696,552,68,44,112,64,164,72,300,403.786,
109.489,548,72,56,128,64,152,76,292,394.451,
111.111,540,64,40,104,68,156,72,296,402.805,
111.111,540,64,44,108,64,172,68,304,413.692,
112.782,532,56,44,100,68,164,68,300,411.306,
114.504,524,60,36,96,68,164,68,300,414.434,
115.385,520,60,40,100,68,164,64,296,410.478,
115.385,520,60,48,108,64,164,68,296,410.478,
116.279,516,56,48,104,64,152,72,288,400.929,
119.048,504,64,44,108,68,160,68,296,416.943,
118.11,508,68,44,112,68,164,64,296,415.298,
118.11,508,64,44,108,64,156,64,284,398.462,
120,500,64,36,100,68,164,68,300,424.264,
119.048,504,48,48,96,68,164,64,296,416.943,
120,500,60,52,112,68,160,64,292,412.95,
120.968,496,68,40,108,68,156,68,292,414.612,
120.968,496,68,40,108,68,160,64,292,414.612,
121.951,492,60,40,100,68,156,68,292,416.294,
121.951,492,64,40,104,68,156,68,292,416.294,
121.951,492,56,40,96,68,156,68,292,416.294,
120.968,496,64,40,104,64,156,68,288,408.933,
123.967,484,68,40,108,68,164,60,292,419.72,
122.951,488,68,44,112,64,148,72,284,406.545,
123.967,484,60,44,104,64,148,68,280,402.472,
123.967,484,56,52,108,68,152,68,288,413.971,
119.048,504,"","","",68,152,72,292,411.308,
117.188,512,60,44,104,68,152,72,292,408.082,
116.279,516,64,40,104,68,152,72,292,406.498,
113.636,528,60,40,100,68,152,68,288,396.347,
113.636,528,56,40,96,72,148,68,288,396.347,
111.94,536,64,40,104,64,148,76,288,393.378,
110.294,544,64,44,108,68,148,72,288,390.475,
102.74,584,60,48,108,72,156,68,296,387.334,
100,600,52,48,100,68,164,68,300,387.298,
100.671,596,64,40,104,72,160,68,300,388.596,
100.671,596,64,40,104,68,152,76,296,383.415,
107.143,560,60,40,100,72,164,68,304,406.237,
104.895,572,64,44,108,68,156,72,296,391.376,
108.696,552,72,48,120,68,156,72,296,398.403,
107.914,556,68,44,112,68,156,72,296,396.967,
107.914,556,68,40,108,72,160,72,304,407.696,
103.448,580,64,48,112,68,152,72,292,383.415,
104.167,576,68,44,112,72,152,72,296,390.014,
102.74,584,72,40,112,76,156,68,300,392.568,
100.671,596,68,44,112,72,164,64,300,388.596,
101.351,592,68,40,108,72,156,76,304,395.105,
102.74,584,48,44,92,68,164,64,296,387.334,
105.634,568,60,40,100,72,160,68,300,398.059,
105.634,568,64,48,112,72,156,68,296,392.751,
107.143,560,64,44,108,72,160,64,296,395.547,
108.696,552,64,44,108,72,156,64,292,393.019,
109.489,548,64,44,108,68,156,72,296,399.854,
108.696,552,60,44,104,64,160,72,296,398.403,
110.294,544,64,44,108,68,156,68,292,395.898,
111.111,540,60,44,104,64,152,76,292,397.362,
112.782,532,64,40,104,68,148,76,292,400.338,
112.782,532,64,36,100,68,160,68,296,405.822,
112.782,532,64,40,104,64,160,68,292,400.338,
114.504,524,56,44,100,64,160,68,292,403.383,
115.385,520,64,40,104,64,160,68,292,404.931,
116.279,516,56,40,96,68,156,68,292,406.498,
116.279,516,64,36,100,68,156,68,292,406.498,
117.188,512,52,36,88,68,164,68,300,419.263,
117.188,512,64,44,108,64,164,64,292,408.082,
118.11,508,64,48,112,68,160,60,288,404.074,
120,500,60,36,96,68,156,68,292,412.95,
120,500,76,40,116,68,148,72,288,407.294,
119.048,504,60,40,100,68,156,68,292,411.308,
118.11,508,64,44,108,68,156,68,292,409.686,
111.94,536,68,40,108,68,152,72,292,398.842,
110.294,544,52,44,96,72,152,72,296,401.321,
96.7742,620,60,40,100,72,152,72,296,375.92,
83.3333,720,64,40,104,76,164,68,308,362.981,
84.2697,712,68,44,112,72,172,64,308,365.015,
89.2857,672,64,44,108,68,160,76,304,370.842,
91.4634,656,64,56,120,68,168,68,304,375.337,
96.1538,624,76,48,124,72,160,72,304,384.841,
93.75,640,64,44,108,68,164,72,304,380,
95.5414,628,72,44,116,72,172,64,308,388.661,
94.9367,632,68,48,116,72,168,64,304,382.398,
94.9367,632,72,44,116,68,172,68,308,387.429,
97.4026,616,68,44,112,72,168,68,308,392.428,
100,600,68,40,108,68,168,68,304,392.462,
104.167,576,64,36,100,68,164,72,304,400.555,
107.143,560,72,40,112,68,156,76,300,400.892,
110.294,544,60,44,104,68,156,72,296,401.321,
111.111,540,72,40,112,68,160,72,300,408.248,
111.94,536,56,48,104,64,160,68,292,398.842,
113.636,528,56,48,104,68,152,72,292,401.852,
113.636,528,56,44,100,68,156,68,292,401.852,
112.782,532,60,44,104,68,156,68,292,400.338,
114.504,524,60,40,100,68,156,68,292,403.383,
114.504,524,60,44,104,64,160,68,292,403.383,
114.504,524,68,48,116,64,156,72,292,403.383,
115.385,520,64,44,108,68,156,68,292,404.931,
114.504,524,60,48,108,64,156,72,292,403.383,
113.636,528,56,48,104,68,156,68,292,401.852,
113.636,528,64,44,108,68,156,68,292,401.852,
111.94,536,68,44,112,68,160,64,292,398.842,
111.111,540,64,44,108,68,148,72,288,391.918,
110.294,544,72,48,120,64,160,68,292,395.898,
109.489,548,64,40,104,68,156,72,296,399.854,
108.696,552,60,44,104,68,168,60,296,398.403,
109.489,548,64,52,116,68,152,72,292,394.451,
111.111,540,64,44,108,68,156,68,292,397.362,
111.111,540,56,48,104,64,156,68,288,391.918,
111.94,536,64,40,104,68,156,68,292,398.842,
111.94,536,60,44,104,64,160,68,292,398.842,
112.782,532,64,44,108,64,160,68,292,400.338,
111.111,540,60,44,104,68,168,64,300,408.248,
111.111,540,56,44,100,68,160,64,292,397.362,
111.111,540,68,48,116,68,164,60,292,397.362,
111.111,540,68,44,112,64,148,76,288,391.918,
111.111,540,72,56,128,64,164,68,296,402.805,
112.782,532,68,52,120,64,156,72,292,400.338,
112.782,532,68,44,112,68,148,76,292,400.338,
111.94,536,60,44,104,68,160,60,288,393.378,
110.294,544,56,72,128,64,156,72,292,395.898,
110.294,544,60,44,104,68,160,64,292,395.898,
107.914,556,60,44,104,68,160,68,296,396.967,
106.383,564,60,52,112,68,156,64,288,383.489,
105.634,568,64,44,108,64,156,72,292,387.444,
106.383,564,60,44,104,68,156,68,292,388.815,
106.383,564,60,48,108,68,160,68,296,394.141,
107.143,560,64,44,108,64,156,68,288,384.856,
108.696,552,64,48,112,68,156,72,296,398.403,
109.489,548,68,48,116,68,160,68,296,399.854,
109.489,548,68,44,112,68,156,68,292,394.451,
110.294,544,64,44,108,68,156,68,292,395.898,
110.294,544,68,44,112,68,156,68,292,395.898,
110.294,544,64,48,112,68,144,76,288,390.475,
109.489,548,64,48,112,68,152,72,292,394.451,
102.74,584,64,44,108,72,156,68,296,387.334,
101.351,592,72,40,112,76,160,64,300,389.906,
98.0392,612,68,44,112,72,164,64,300,383.482,
95.5414,628,68,44,112,72,164,64,300,378.566,
95.5414,628,68,44,112,72,160,68,300,378.566,
94.9367,632,68,44,112,72,160,68,300,377.366,
96.1538,624,72,40,112,72,164,68,304,384.841,
96.7742,620,68,44,112,72,164,64,300,381,
100.671,596,68,40,108,72,164,68,304,393.777,
101.351,592,64,44,108,72,160,68,300,389.906,
102.74,584,64,44,108,72,160,68,300,392.568,
102.74,584,68,44,112,68,160,68,296,387.334,
104.895,572,64,44,108,68,160,68,296,391.376,
105.634,568,64,44,108,68,164,68,300,398.059,
104.895,572,64,44,108,72,164,64,300,396.664,
104.167,576,60,48,108,68,160,68,296,390.014,
103.448,580,68,40,108,68,164,68,300,393.919,
103.448,580,60,44,104,68,164,68,300,393.919,
104.167,576,64,40,104,72,168,64,304,400.555,
103.448,580,64,44,108,68,160,68,296,388.667,
104.895,572,68,40,108,72,156,68,296,391.376,
104.895,572,76,44,120,68,172,64,304,401.953,
105.634,568,68,44,112,68,160,68,296,392.751,
107.143,560,64,44,108,68,164,64,296,395.547,
106.383,564,68,44,112,68,164,64,296,394.141,
106.383,564,64,44,108,68,164,68,300,399.468,
105.634,568,60,48,108,68,156,68,292,387.444,
103.448,580,64,48,112,68,160,68,296,388.667,
102.041,588,64,44,108,72,160,68,300,391.23,
100.671,596,64,44,108,72,164,68,304,393.777,
100,600,68,44,112,72,164,64,300,387.298,
102.041,588,68,40,108,72,160,68,300,391.23,
102.74,584,68,44,112,68,168,68,304,397.802,
102.74,584,68,44,112,68,164,68,300,392.568,
102.74,584,68,44,112,68,160,72,300,392.568,
102.041,588,68,44,112,68,164,72,304,396.447,
102.041,588,64,44,108,68,164,72,304,396.447,
102.74,584,64,44,108,72,164,64,300,392.568,
104.167,576,68,40,108,72,160,72,304,400.555,
105.634,568,64,44,108,68,164,68,300,398.059,
105.634,568,60,44,104,72,168,64,304,403.366,
105.634,568,68,44,112,72,164,64,300,398.059,
104.167,576,64,44,108,68,164,68,300,395.285,
103.448,580,68,44,112,68,160,72,300,393.919,
102.74,584,64,44,108,72,156,68,296,387.334,
99.3377,604,68,44,112,68,160,72,300,386.014,
96.7742,620,68,44,112,72,160,68,300,381,
95.5414,628,68,44,112,72,168,64,304,383.613,
95.5414,628,72,40,112,72,164,72,308,388.661,
97.4026,616,64,44,108,72,164,68,304,387.332,
98.0392,612,64,44,108,72,160,72,304,388.596,
96.7742,620,68,44,112,68,160,72,300,381,
100,600,64,40,104,72,164,68,304,392.462,
101.351,592,64,44,108,72,164,68,304,395.105,
102.74,584,64,40,104,72,160,68,300,392.568,
101.351,592,68,44,112,72,160,68,300,389.906,
100.671,596,68,44,112,76,160,68,304,393.777,
97.4026,616,64,44,108,72,156,76,304,387.332,
96.7742,620,68,44,112,72,160,68,300,381,
98.6842,608,68,44,112,72,160,72,304,389.872,
98.0392,612,64,44,108,72,156,72,300,383.482,
98.6842,608,68,44,112,68,160,72,300,384.742,
99.3377,604,64,44,108,72,160,72,304,391.161,
98.6842,608,68,44,112,72,164,68,304,389.872,
101.351,592,64,44,108,72,160,72,304,395.105,
100,600,68,44,112,72,156,72,300,387.298,
100,600,68,44,112,72,164,72,308,397.626,
98.0392,612,68,44,112,72,164,68,304,388.596,
98.0392,612,68,48,116,72,168,64,304,388.596,
98.6842,608,64,48,112,68,160,72,300,384.742,
99.3377,604,64,44,108,72,160,68,300,386.014,
98.0392,612,68,44,112,72,164,68,304,388.596,
98.6842,608,68,44,112,68,164,72,304,389.872,
100,600,68,40,108,72,160,72,304,392.462,
102.041,588,64,44,108,72,160,72,304,396.447,
102.041,588,60,48,108,68,160,72,300,391.23,
102.041,588,64,48,112,68,160,68,296,386.014,
103.448,580,64,44,108,72,160,72,304,399.172,
102.041,588,64,44,108,72,160,72,304,396.447,
102.74,584,60,44,104,72,164,68,304,397.802,
102.74,584,72,40,112,68,160,72,300,392.568,
102.041,588,68,40,108,72,156,72,300,391.23,
101.351,592,68,44,112,72,160,68,300,389.906,
102.041,588,64,44,108,68,164,72,304,396.447,
104.167,576,64,44,108,72,160,68,300,395.285,
104.167,576,64,44,108,68,160,72,300,395.285,
104.167,576,64,48,112,68,160,68,296,390.014,
102.74,584,64,52,116,72,152,76,300,392.568,
102.041,588,56,44,100,72,156,72,300,391.23,
102.041,588,64,48,112,68,164,68,300,391.23,
102.74,584,60,44,104,72,156,72,300,392.568,
100.671,596,68,44,112,68,156,76,300,388.596,
101.351,592,68,52,120,72,156,76,304,395.105,
102.74,584,72,48,120,72,160,68,300,392.568,
101.351,592,64,56,120,72,156,84,312,405.503,
100,600,68,48,116,72,160,68,300,387.298,
100.671,596,64,60,124,76,164,68,308,398.958,
102.74,584,60,48,108,72,160,72,304,397.802,
104.167,576,64,52,116,68,156,84,308,405.826,
102.74,584,68,52,120,68,144,80,292,382.099,
105.634,568,64,52,116,68,160,68,296,392.751,
107.914,556,60,40,100,68,156,84,308,413.06,
106.383,564,64,48,112,68,164,72,304,404.794,
107.143,560,60,52,112,68,160,80,308,411.582,
107.143,560,72,48,120,64,144,84,292,390.201,
107.914,556,68,48,116,64,160,68,292,391.602,
108.696,552,72,48,120,68,160,68,296,398.403,
107.914,556,72,52,124,72,168,64,304,407.696,
105.634,568,68,48,116,68,164,68,300,398.059,
107.143,560,68,48,116,72,156,68,296,395.547,
105.634,568,60,56,116,68,164,68,300,398.059,
104.895,572,72,48,120,72,160,72,304,401.953,
100.671,596,64,44,108,72,156,76,304,393.777,
100.671,596,64,44,108,72,160,72,304,393.777,
99.3377,604,68,44,112,72,164,72,308,396.307,
98.6842,608,64,44,108,72,168,68,308,395.002,
101.351,592,60,44,104,72,168,68,308,400.304,
101.351,592,64,44,108,72,164,72,308,400.304,
101.351,592,68,44,112,72,160,68,300,389.906,
102.74,584,68,40,108,72,160,72,304,397.802,
102.041,588,68,44,112,72,152,76,300,391.23,
98.6842,608,60,40,100,76,160,72,308,395.002,
90.9091,660,72,44,116,76,168,64,308,379.122,
90.3614,664,68,40,108,72,168,72,312,382.887,
93.75,640,68,44,112,68,168,72,308,385,
94.3396,636,68,44,112,72,168,72,312,391.224,
93.1677,644,68,44,112,72,168,68,308,383.802,
88.2353,680,72,44,116,68,172,68,308,373.505,
85.2273,704,68,44,112,72,176,64,312,371.85,
85.2273,704,72,40,112,80,172,64,316,376.618,
84.2697,712,72,44,116,72,168,68,308,365.015,
85.7143,700,72,40,112,76,172,68,316,377.692,
87.2093,688,72,40,112,72,172,72,316,380.972,
88.7574,676,68,44,112,72,176,64,312,379.473,
90.3614,664,68,44,112,72,164,72,308,377.978,
92.0245,652,68,44,112,72,168,72,312,386.394,
93.1677,644,64,48,112,68,168,72,308,383.802,
95.5414,628,72,44,116,72,168,68,308,388.661,
96.1538,624,68,44,112,72,168,72,312,394.968,
95.5414,628,64,44,108,72,164,72,308,388.661,
94.3396,636,64,48,112,68,168,72,308,386.209,
94.9367,632,68,44,112,68,168,72,308,387.429,
96.1538,624,68,40,108,72,164,72,308,389.905,
96.7742,620,64,44,108,72,164,72,308,391.16,
96.1538,624,68,44,112,72,164,72,308,389.905,
97.4026,616,64,44,108,72,168,68,308,392.428,
97.4026,616,64,44,108,72,168,68,308,392.428,
97.4026,616,68,40,108,72,164,72,308,392.428,
97.4026,616,68,44,112,68,168,72,308,392.428,
100,600,72,44,116,72,164,72,308,397.626,
100.671,596,68,44,112,72,164,72,308,398.958,
100,600,64,48,112,72,160,72,304,392.462,
100,600,64,48,112,72,156,72,300,387.298,
100,600,64,44,108,72,160,72,304,392.462,
98.0392,612,68,44,112,72,160,76,308,393.709,
98.0392,612,64,44,108,72,164,72,308,393.709,
97.4026,616,64,48,112,68,164,72,304,387.332,
97.4026,616,68,44,112,72,164,72,308,392.428,
95.5414,628,64,44,108,72,168,68,308,388.661,
94.9367,632,64,48,112,72,168,68,308,387.429,
96.1538,624,68,40,108,72,168,72,312,394.968,
95.5414,628,68,44,112,72,164,72,308,388.661,
97.4026,616,68,40,108,72,168,72,312,397.525,
98.6842,608,64,44,108,72,168,68,308,395.002,
98.0392,612,68,44,112,72,168,68,308,393.709,
99.3377,604,64,48,112,68,164,72,304,391.161,
100,600,68,44,112,68,160,76,304,392.462,
99.3377,604,64,44,108,72,160,76,308,396.307,
99.3377,604,60,44,104,72,164,72,308,396.307,
100,600,64,44,108,72,160,72,304,392.462,
99.3377,604,68,44,112,72,160,72,304,391.161,
98.6842,608,72,44,116,72,160,72,304,389.872,
98.0392,612,64,48,112,72,160,72,304,388.596,
99.3377,604,64,44,108,72,160,76,308,396.307,
98.6842,608,60,44,104,72,160,76,308,395.002,
100,600,64,48,112,68,160,76,304,392.462,
100.671,596,64,40,104,72,156,76,304,393.777,
100,600,64,44,108,68,160,76,304,392.462,
100.671,596,64,44,108,72,160,76,308,398.958,
100.671,596,64,44,108,72,160,76,308,398.958,
101.351,592,60,44,104,72,156,76,304,395.105,
102.041,588,60,44,104,72,164,72,308,401.663,
102.041,588,64,44,108,68,164,72,304,396.447,
102.041,588,68,44,112,72,164,68,304,396.447,
102.74,584,64,44,108,72,160,76,308,403.036,
104.167,576,68,44,112,72,164,68,304,400.555,
104.895,572,64,48,112,68,160,72,300,396.664,
104.167,576,68,44,112,68,164,76,308,405.826,
102.041,588,60,44,104,68,168,76,312,406.88,
102.74,584,76,44,120,72,176,64,312,408.271,
101.351,592,72,48,120,68,168,72,308,400.304,
102.041,588,64,48,112,68,160,80,308,401.663,
101.351,592,80,48,128,72,152,84,308,400.304,
100,600,68,48,116,76,152,76,304,392.462,
99.3377,604,68,44,112,72,164,76,312,401.454,
98.0392,612,68,44,112,72,160,76,308,393.709,
98.0392,612,68,48,116,72,168,68,308,393.709,
100,600,68,48,116,72,168,68,308,397.626,
100.671,596,68,48,116,72,164,72,308,398.958,
100.671,596,68,44,112,72,164,72,308,398.958,
101.351,592,64,44,108,72,168,72,312,405.503,
101.351,592,72,40,112,68,160,76,304,395.105,
103.448,580,68,48,116,68,164,72,304,399.172,
103.448,580,68,48,116,68,164,72,304,399.172,
103.448,580,64,44,108,72,164,72,308,404.424,
102.74,584,64,48,112,68,164,72,304,397.802,
103.448,580,68,44,112,68,160,76,304,399.172,
102.74,584,68,48,116,68,168,72,308,403.036,
102.74,584,64,48,112,68,164,68,300,392.568,
103.448,580,64,44,108,72,164,72,308,404.424,
102.74,584,60,44,104,72,164,68,304,397.802,
102.74,584,72,44,116,72,168,68,308,403.036,
102.041,588,64,48,112,68,160,76,304,396.447,
103.448,580,64,48,112,68,168,72,308,404.424,
104.167,576,64,44,108,72,160,72,304,400.555,
103.448,580,68,44,112,72,156,76,304,399.172,
102.74,584,60,44,104,72,164,72,308,403.036,
100.671,596,64,44,108,72,164,72,308,398.958,
100,600,68,44,112,72,164,72,308,397.626,
99.3377,604,60,48,108,68,160,76,304,391.161,
99.3377,604,68,44,112,72,168,68,308,396.307,
100,600,64,44,108,72,164,72,308,397.626,
100,600,64,44,108,68,160,76,304,392.462,
100.671,596,64,44,108,68,168,72,308,398.958,
101.351,592,68,44,112,68,172,68,308,400.304,
102.041,588,64,44,108,72,164,68,304,396.447,
101.351,592,64,44,108,72,160,68,300,389.906,
101.351,592,68,44,112,72,168,68,308,400.304,
99.3377,604,68,44,112,72,168,64,304,391.161,
98.6842,608,68,44,112,72,164,72,308,395.002,
98.6842,608,68,44,112,72,164,68,304,389.872,
98.6842,608,68,40,108,76,160,72,308,395.002,
98.0392,612,68,44,112,72,164,72,308,393.709,
98.6842,608,68,44,112,72,164,68,304,389.872,
100,600,60,44,104,76,168,68,312,402.79,
100,600,68,44,112,72,164,72,308,397.626,
100,600,64,44,108,72,164,72,308,397.626,
100,600,64,48,112,72,168,68,308,397.626,
102.74,584,64,44,108,72,164,72,308,403.036,
102.74,584,68,44,112,72,160,72,304,397.802,
102.74,584,68,44,112,68,164,72,304,397.802,
102.041,588,64,44,108,72,164,72,308,401.663,
100.671,596,68,44,112,72,160,72,304,393.777,
98.0392,612,72,44,116,72,168,68,308,393.709,
97.4026,616,68,44,112,76,168,68,312,397.525,
94.9367,632,72,44,116,72,168,68,308,387.429,
94.9367,632,72,44,116,72,168,72,312,392.461,
95.5414,628,64,48,112,68,168,72,308,388.661,
96.7742,620,68,44,112,72,172,68,312,396.24,
97.4026,616,64,48,112,68,172,72,312,397.525,
98.6842,608,64,44,108,68,172,72,312,400.132,
100.671,596,68,40,108,72,168,72,312,404.14,
100,600,68,44,112,68,168,72,308,397.626,
101.351,592,68,44,112,72,164,72,308,400.304,
101.351,592,68,44,112,72,168,68,308,400.304,
101.351,592,64,44,108,72,164,72,308,400.304,
101.351,592,64,44,108,72,168,72,312,405.503,
100.671,596,64,44,108,68,164,76,308,398.958,
101.351,592,64,44,108,72,156,76,304,395.105,
100.671,596,68,44,112,72,160,72,304,393.777,
100.671,596,64,44,108,72,164,72,308,398.958,
100,600,68,44,112,72,160,72,304,392.462,
99.3377,604,68,48,116,72,164,72,308,396.307,
100,600,68,44,112,72,160,76,308,397.626,
99.3377,604,64,44,108,72,160,76,308,396.307,
98.6842,608,64,44,108,72,160,76,308,395.002,
100,600,68,40,108,76,164,72,312,402.79,
99.3377,604,64,44,108,72,164,72,308,396.307,
100,600,64,44,108,72,160,76,308,397.626,
99.3377,604,68,40,108,72,164,72,308,396.307,
97.4026,616,64,48,112,72,168,68,308,392.428,
97.4026,616,64,44,108,72,164,72,308,392.428,
97.4026,616,68,40,108,72,164,72,308,392.428,
96.1538,624,72,44,116,72,172,68,312,394.968,
95.5414,628,68,44,112,72,168,68,308,388.661,
96.1538,624,72,40,112,72,168,72,312,394.968,
96.7742,620,72,44,116,72,168,72,312,396.24,
96.7742,620,68,44,112,72,168,72,312,396.24,
98.6842,608,72,44,116,72,168,72,312,400.132,
100,600,64,48,112,72,164,68,304,392.462,
102.041,588,64,44,108,72,168,72,312,406.88,
102.041,588,68,40,108,72,164,72,308,401.663,
101.351,592,68,48,116,72,160,72,304,395.105,
101.351,592,64,48,112,72,156,76,304,395.105,
101.351,592,64,44,108,72,164,72,308,400.304,
98.6842,608,68,48,116,72,168,68,308,395.002,
98.6842,608,64,48,112,72,168,68,308,395.002,
97.4026,616,68,44,112,72,168,72,312,397.525,
97.4026,616,72,44,116,72,160,76,308,392.428,
98.6842,608,64,48,112,72,164,72,308,395.002,
99.3377,604,68,48,116,68,156,80,304,391.161,
100.671,596,68,44,112,72,160,76,308,398.958,
100,600,68,48,116,72,160,76,308,397.626,
100.671,596,64,48,112,68,160,76,304,393.777,
101.351,592,64,44,108,72,164,72,308,400.304,
101.351,592,64,44,108,72,168,72,312,405.503,
100,600,64,44,108,72,164,72,308,397.626,
98.6842,608,64,48,112,68,164,76,308,395.002,
98.6842,608,68,48,116,68,164,76,308,395.002,
98.6842,608,60,48,108,72,164,72,308,395.002,
98.6842,608,64,44,108,72,164,76,312,400.132,
98.6842,608,64,44,108,72,168,72,312,400.132,
98.6842,608,68,44,112,68,168,72,308,395.002,
100,600,64,44,108,72,168,72,312,402.79,
100,600,68,44,112,72,168,72,312,402.79,
101.351,592,64,44,108,72,168,72,312,405.503,
101.351,592,68,44,112,68,160,80,308,400.304,
100.671,596,68,44,112,72,160,76,308,398.958,
100,600,68,44,112,68,164,76,308,397.626,
100,600,64,44,108,68,156,80,304,392.462,
100,600,68,40,108,72,164,76,312,402.79,
98.6842,608,68,44,112,72,160,76,308,395.002,
100,600,68,44,112,72,164,72,308,397.626,
98.6842,608,68,44,112,72,164,72,308,395.002,
98.6842,608,68,44,112,72,168,72,312,400.132,
98.0392,612,64,44,108,72,168,72,312,398.822,
96.7742,620,64,44,108,72,168,72,312,396.24,
97.4026,616,64,44,108,72,160,76,308,392.428,
98.0392,612,64,44,108,72,168,76,316,403.935,
96.7742,620,68,48,116,72,164,72,308,391.16,
97.4026,616,64,44,108,72,164,76,312,397.525,
94.9367,632,64,48,112,72,168,72,312,392.461,
95.5414,628,68,48,116,68,168,72,308,388.661,
98.0392,612,64,44,108,72,164,76,312,398.822,
97.4026,616,64,48,112,68,164,76,308,392.428,
99.3377,604,68,44,112,72,168,72,312,401.454,
99.3377,604,68,44,112,72,168,72,312,401.454,
100.671,596,68,44,112,68,168,76,312,404.14,
101.351,592,68,44,112,68,164,76,308,400.304,
101.351,592,68,44,112,68,160,80,308,400.304,
100.671,596,64,48,112,72,160,76,308,398.958,
99.3377,604,68,48,116,72,160,76,308,396.307,
99.3377,604,64,44,108,72,164,76,312,401.454,
99.3377,604,68,48,116,68,164,76,308,396.307,
100,600,68,48,116,68,164,76,308,397.626,
100.671,596,68,44,112,72,160,80,312,404.14,
99.3377,604,64,44,108,72,164,76,312,401.454,
99.3377,604,68,44,112,72,164,76,312,401.454,
98.6842,608,72,48,120,72,164,72,308,395.002,
99.3377,604,68,48,116,68,172,72,312,401.454,
98.6842,608,68,48,116,72,172,72,316,405.261,
98.6842,608,68,44,112,72,168,72,312,400.132,
99.3377,604,60,48,108,68,172,72,312,401.454,
100,600,68,44,112,72,168,72,312,402.79,
100,600,64,44,108,72,172,72,316,407.954,
99.3377,604,64,44,108,72,168,76,316,406.601,
100,600,64,44,108,72,172,72,316,407.954,
100,600,56,48,104,68,172,72,312,402.79,
100,600,64,48,112,68,172,72,312,402.79,
100,600,60,48,108,68,172,72,312,402.79,
100.671,596,64,44,108,72,172,72,316,409.321,
99.3377,604,64,48,112,72,172,72,316,406.601,
100,600,64,44,108,72,164,76,312,402.79,
100,600,60,48,108,68,168,76,312,402.79,
100.671,596,68,44,112,72,168,72,312,404.14,
100,600,64,48,112,68,168,72,308,397.626,
100.671,596,64,48,112,68,168,72,308,398.958,
100.671,596,68,44,112,72,164,72,308,398.958,
99.3377,604,68,44,112,72,164,72,308,396.307,
97.4026,616,68,44,112,72,164,76,312,397.525,
95.5414,628,64,44,108,72,172,72,316,398.756,
95.5414,628,68,44,112,72,164,76,312,393.708,
96.1538,624,68,44,112,72,168,72,312,394.968,
96.7742,620,68,44,112,72,164,76,312,396.24,
97.4026,616,68,44,112,72,168,72,312,397.525,
97.4026,616,68,48,116,72,168,72,312,397.525,
98.6842,608,64,48,112,72,160,76,308,395.002,
100,600,68,44,112,68,164,76,308,397.626,
100,600,64,48,112,68,156,80,304,392.462,
101.351,592,68,44,112,72,160,76,308,400.304,
100.671,596,68,44,112,72,164,72,308,398.958,
100.671,596,64,44,108,72,160,76,308,398.958,
100.671,596,64,48,112,68,164,76,308,398.958,
100.671,596,68,44,112,72,168,72,312,404.14,
100,600,68,44,112,72,168,72,312,402.79,
98.6842,608,68,44,112,72,168,72,312,400.132,
98.6842,608,64,48,112,68,164,76,308,395.002,
98.6842,608,68,44,112,72,160,76,308,395.002,
96.7742,620,72,44,116,72,164,76,312,396.24,
95.5414,628,68,48,116,68,168,76,312,393.708,
94.9367,632,64,48,112,72,172,68,312,392.461,
96.7742,620,68,44,112,72,172,72,316,401.32,
97.4026,616,68,48,116,72,168,72,312,397.525,
98.0392,612,68,44,112,72,168,72,312,398.822,
98.6842,608,72,44,116,72,168,72,312,400.132,
98.6842,608,68,44,112,72,168,72,312,400.132,
99.3377,604,64,48,112,72,168,72,312,401.454,
100,600,64,48,112,72,168,72,312,402.79,
100,600,68,48,116,68,164,76,308,397.626,
101.351,592,64,44,108,72,164,76,312,405.503,
102.74,584,64,44,108,72,164,76,312,408.271,
102.74,584,72,48,120,72,168,72,312,408.271,
102.74,584,64,48,112,68,160,80,308,403.036,
102.041,588,72,48,120,68,160,80,308,401.663,
101.351,592,68,44,112,72,164,76,312,405.503,
95.5414,628,64,48,112,72,164,76,312,393.708,
88.7574,676,64,48,112,72,168,72,312,379.473,
82.8729,724,72,44,116,72,176,72,320,376.08,
75.7576,792,68,44,112,76,172,72,320,359.573,
79.7872,752,72,40,112,76,180,68,324,373.625,
81.5217,736,68,44,112,72,176,72,320,373.002,
84.2697,712,72,44,116,72,176,72,320,379.236,
86.7052,692,72,44,116,76,176,68,320,384.678,
89.8204,668,72,44,116,72,172,76,320,391.527,
92.5926,648,68,44,112,72,180,68,320,397.523,
93.1677,644,76,44,120,72,176,72,320,398.756,
93.1677,644,72,44,116,72,176,72,320,398.756,
94.3396,636,72,44,116,72,176,72,320,401.256,
95.5414,628,68,44,112,72,172,72,316,398.756,
98.0392,612,68,44,112,72,172,72,316,403.935,
98.6842,608,64,48,112,68,168,76,312,400.132,
101.351,592,64,44,108,72,168,76,316,410.701,
100.671,596,64,48,112,68,164,80,312,404.14,
100.671,596,64,48,112,72,168,72,312,404.14,
100.671,596,60,44,104,72,168,76,316,409.321,
100,600,60,52,112,72,164,76,312,402.79,
100,600,64,44,108,72,164,76,312,402.79,
99.3377,604,64,44,108,72,168,76,316,406.601,
98.6842,608,68,44,112,72,168,72,312,400.132,
97.4026,616,64,48,112,72,164,72,308,392.428,
98.0392,612,64,44,108,68,168,76,312,398.822,
97.4026,616,68,48,116,68,164,76,308,392.428,
96.7742,620,68,44,112,72,168,72,312,396.24,
95.5414,628,68,48,116,72,168,72,312,393.708,
96.1538,624,72,44,116,72,172,72,316,400.032,
96.7742,620,60,48,108,72,164,76,312,396.24,
95.5414,628,68,44,112,72,172,72,316,398.756,
92.5926,648,72,48,120,68,172,72,312,387.585,
93.75,640,68,48,116,72,172,72,316,395,
92.5926,648,64,48,112,68,176,76,320,397.523,
92.0245,652,68,48,116,68,172,76,316,391.348,
93.75,640,72,44,116,72,172,72,316,395,
93.1677,644,68,44,112,72,176,72,320,398.756,
93.1677,644,68,44,112,72,172,72,316,393.771,
93.1677,644,72,48,120,68,168,76,312,388.787,
95.5414,628,72,44,116,72,168,76,316,398.756,
94.9367,632,68,48,116,68,168,76,312,392.461,
94.9367,632,68,44,112,72,168,72,312,392.461,
94.9367,632,68,44,112,72,168,76,316,397.492,
91.4634,656,64,44,108,72,168,76,316,390.153,
88.7574,676,68,44,112,72,172,72,316,384.338,
81.9672,732,68,44,112,76,172,72,320,374.02,
82.4176,728,72,44,116,80,172,68,320,375.046,
83.7989,716,72,44,116,76,176,68,320,378.176,
86.2069,696,72,44,116,76,176,68,320,383.571,
86.7052,692,68,48,116,72,176,72,320,384.678,
89.2857,672,72,44,116,72,172,76,320,390.36,
91.4634,656,68,44,112,72,172,76,320,395.092,
92.5926,648,72,44,116,68,176,76,320,397.523,
93.75,640,68,44,112,72,172,76,320,400,
94.9367,632,68,44,112,68,172,76,316,397.492,
97.4026,616,64,44,108,72,168,76,316,402.621,
97.4026,616,64,44,108,72,168,76,316,402.621,
96.7742,620,68,44,112,72,168,72,312,396.24,
97.4026,616,68,44,112,72,168,76,316,402.621,
95.5414,628,68,44,112,72,168,76,316,398.756,
93.1677,644,64,48,112,72,172,72,316,393.771,
92.5926,648,64,48,112,72,176,72,320,397.523,
92.0245,652,68,44,112,72,176,72,320,396.302,
88.2353,680,68,44,112,72,176,72,320,388.057,
87.7193,684,72,44,116,76,176,68,320,386.921,
87.7193,684,72,44,116,72,176,72,320,386.921,
88.2353,680,72,44,116,72,176,72,320,388.057,
89.2857,672,68,44,112,72,176,72,320,390.36,
90.3614,664,68,44,112,72,172,76,320,392.705,
91.4634,656,72,40,112,72,172,76,320,395.092,
90.9091,660,76,44,120,72,172,72,316,388.969,
91.4634,656,68,48,116,68,176,76,320,395.092,
92.0245,652,64,44,108,72,172,76,320,396.302,
92.5926,648,68,48,116,72,172,72,316,392.554,
92.5926,648,64,48,112,72,180,68,320,397.523,
92.0245,652,72,44,116,68,176,76,320,396.302,
91.4634,656,68,48,116,72,176,72,320,395.092,
90.3614,664,72,44,116,68,176,76,320,392.705,
90.9091,660,72,44,116,72,176,72,320,393.893,
90.3614,664,68,44,112,68,172,76,316,387.796,
90.9091,660,72,44,116,72,176,72,320,393.893,
90.3614,664,68,48,116,68,172,76,316,387.796,
91.4634,656,68,48,116,72,176,72,320,395.092,
92.5926,648,68,48,116,72,172,76,320,397.523,
93.75,640,64,48,112,72,172,76,320,400,
93.1677,644,64,48,112,68,176,72,316,393.771,
95.5414,628,68,44,112,72,176,72,320,403.804,
94.3396,636,68,48,116,68,172,76,316,396.24,
94.9367,632,68,44,112,72,172,76,320,402.524,
94.3396,636,64,44,108,72,172,76,320,401.256,
94.3396,636,64,48,112,72,176,72,320,401.256,
93.75,640,68,44,112,72,176,72,320,400,
92.5926,648,68,44,112,72,176,72,320,397.523,
92.0245,652,72,44,116,72,172,76,320,396.302,
92.0245,652,68,44,112,72,180,72,324,401.256,
92.0245,652,68,44,112,72,176,76,324,401.256,
92.0245,652,72,44,116,72,172,76,320,396.302,
92.5926,648,72,44,116,72,172,76,320,397.523,
92.0245,652,68,44,112,72,172,76,320,396.302,
93.1677,644,68,48,116,72,176,72,320,398.756,
94.3396,636,64,44,108,72,172,76,320,401.256,
93.1677,644,68,44,112,72,172,76,320,398.756,
93.1677,644,68,44,112,72,172,76,320,398.756,
92.0245,652,64,48,112,72,172,76,320,396.302,
92.5926,648,68,48,116,72,176,72,320,397.523,
93.1677,644,68,44,112,72,168,80,320,398.756,
92.0245,652,72,48,120,68,172,76,316,391.348,
93.75,640,68,48,116,68,176,76,320,400,
93.75,640,68,44,112,72,180,72,324,405,
93.75,640,68,44,112,72,172,76,320,400,
93.75,640,68,44,112,72,172,76,320,400,
94.3396,636,68,44,112,72,172,76,320,401.256,
93.75,640,68,44,112,72,172,76,320,400,
94.3396,636,68,48,116,68,176,72,316,396.24,
96.7742,620,68,44,112,72,176,72,320,406.4,
99.3377,604,64,48,112,76,164,76,316,406.601,
98.6842,608,68,44,112,72,160,80,312,400.132,
98.0392,612,64,48,112,68,164,80,312,398.822,
99.3377,604,64,48,112,72,168,72,312,401.454,
101.351,592,64,44,108,72,168,76,316,410.701,
100.671,596,64,48,112,72,168,72,312,404.14,
100,600,72,44,116,72,168,76,316,407.954,
100,600,64,44,108,72,164,80,316,407.954,
99.3377,604,64,48,112,72,164,76,312,401.454,
98.6842,608,72,44,116,72,168,76,316,405.261,
98.6842,608,68,48,116,72,172,72,316,405.261,
99.3377,604,68,44,112,72,172,76,320,411.748,
98.6842,608,68,48,116,72,172,72,316,405.261,
100.671,596,68,44,112,72,168,76,316,409.321,
100.671,596,64,48,112,68,168,76,312,404.14,
101.351,592,64,48,112,68,168,80,316,410.701,
