"ECG_P_Onsets","ECG_P_Offsets","ECG_R_Onsets","ECG_R_Offsets","ECG_T_Onsets","ECG_T_Offsets",
"","",56,136,204,368,
588,660,708,780,852,1020,
1240,1316,1360,1436,1504,1676,
1920,1996,2040,2116,2184,2356,
2596,2680,2724,2800,2868,3040,
3272,3352,3396,3468,3540,3712,
3940,4020,4064,4140,4208,4380,
4600,4680,4728,4804,4868,5044,
5256,5332,5380,5456,5524,5696,
5908,5984,6028,6104,6176,6344,
6552,6632,6676,6752,6820,6992,
7200,7280,7324,7400,7468,7644,
7844,7924,7968,8044,8112,8288,
8496,8572,8620,8696,8764,8936,
9156,9228,9276,9352,9420,9588,
9808,9888,9932,10008,10080,10248,
10456,10528,10572,10648,10716,10888,
11112,11176,11224,11296,11368,11540,
11756,11832,11880,11952,12024,12196,
12408,12484,12532,12608,12676,12852,
13068,13144,13188,13264,13336,13508,
13724,13800,13844,13920,13988,14160,
14372,14456,14500,14576,14644,14820,
15032,15104,15152,15228,15300,15468,
15676,15748,15796,15868,15940,16112,
16316,16392,16440,16512,16580,16756,
16968,17044,17088,17164,17228,17408,
17616,17696,17740,17816,17884,18060,
18276,18352,18400,18472,18544,18716,
18928,19008,19056,19132,19200,19372,
19596,19672,19716,19792,19860,20036,
20248,20324,20368,20444,20516,20688,
20908,20984,21028,21104,21172,21348,
21564,21648,21692,21772,21836,22012,
22228,22308,22352,22428,22496,22672,
22884,22968,23012,23088,23160,23328,
23544,23620,23664,23740,23808,23984,
24204,24280,24324,24396,24464,24644,
24856,24932,24976,25052,25124,25296,
25516,25588,25636,25708,25780,25956,
26164,26240,26288,26364,26432,26608,
26824,26896,26944,27020,27088,27264,
27480,27552,27600,27672,27744,27916,
28124,28204,28252,28328,28396,28572,
28780,28852,28900,28976,29044,29220,
29436,29512,29556,29632,29704,29876,
30116,30196,30240,30316,30384,30560,
30792,30872,30916,30992,31064,31236,
31472,31548,31592,31668,31740,31912,
32148,32228,32272,32348,32420,32592,
32824,32900,32948,33024,33092,33268,
33488,33568,33612,33688,33760,33932,
34156,34224,34272,34344,34416,34592,
34804,34884,34928,35004,35072,35252,
35480,35556,35600,35672,35744,35916,
36144,36220,36268,36340,36412,36584,
36816,36896,36940,37016,37084,37260,
37484,37564,37612,37688,37756,37932,
38160,38240,38284,38364,38428,38608,
38832,38912,38956,39028,39104,39276,
39488,39572,39612,39688,39760,39936,
40152,40228,40272,40348,40420,40592,
40804,40884,40932,41004,41076,41252,
41460,41536,41584,41656,41732,41904,
42116,42184,42228,42304,42380,42552,
42756,42832,42876,42952,43024,43196,
43400,43476,43524,43596,43668,43844,
44048,44128,44172,44248,44320,44496,
44704,44776,44824,44896,44972,45144,
45360,45432,45480,45556,45624,45800,
46016,46096,46140,46216,46288,46464,
46672,46752,46796,46872,46944,47120,
47324,47404,47448,47524,47592,47772,
47972,48052,48100,48176,48244,48424,
48632,48712,48756,48832,48904,49080,
49292,49364,49412,49488,49556,49732,
49928,50004,50052,50124,50200,50380,
50568,50640,50688,50760,50836,51008,
51192,51260,51308,51384,51460,51632,
51792,51864,51908,51984,52060,52232,
52396,52448,52500,52576,52656,52824,
52972,53052,53096,53172,53252,53416,
53576,53644,53692,53768,53852,54008,
54160,54224,54276,54348,54424,54592,
54736,54808,54852,54924,55000,55168,
55316,55380,55432,55500,55576,55744,
55884,55952,56000,56072,56152,56312,
56456,56520,56568,56640,56712,56880,
57008,57080,57124,57192,57272,57432,
57564,57632,57680,57748,57824,57988,
58116,58176,58232,58296,58372,58536,
58668,58728,58776,58844,58920,59080,
59208,59272,59316,59384,59460,59624,
59752,59812,59860,59928,60004,60164,
60296,60360,60400,60468,60540,60708,
60836,60896,60944,61008,61080,61244,
61376,61440,61484,61552,61628,61792,
61916,61976,62024,62092,62168,62328,
62468,62528,62564,62632,62708,62872,
63000,63052,63104,63172,63248,63412,
63540,63596,63640,63708,63780,63948,
64076,64124,64172,64240,64312,64480,
64596,64656,64704,64772,64844,65012,
65128,65180,65232,65296,65372,65536,
65660,65716,65760,65828,65904,66068,
66176,66240,66292,66360,66432,66592,
66708,66772,66816,66884,66960,67124,
67232,67292,67344,67408,67492,67648,
67760,67832,67876,67940,68020,68184,
68308,68372,68420,68488,68564,68732,
68868,68932,68976,69044,69120,69288,
69444,69508,69556,69628,69704,69872,
70048,70112,70152,70228,70308,70468,
70672,70740,70780,70852,70932,71104,
71308,71376,71428,71500,71576,71736,
71960,72020,72064,72132,72212,72388,
72580,72640,72684,72752,72824,73008,
73216,73236,73292,73364,73440,73616,
73780,73840,73892,73956,74044,74200,
74372,74428,74472,74540,74620,74784,
74944,75008,75044,75112,75192,75356,
75500,75564,75612,75680,75756,75924,
76068,76124,76172,76236,76312,76480,
76632,76692,76728,76792,76860,77036,
77164,77232,77276,77340,77412,77572,
77708,77764,77820,77884,77956,78124,
78256,78316,78360,78424,78500,78660,
78800,78860,78900,78964,79036,79200,
79332,79384,79432,79496,79572,79732,
79852,79916,79964,80028,80104,80264,
80388,80444,80500,80564,80632,80796,
80916,80976,81024,81088,81160,81324,
81444,81500,81548,81612,81688,81852,
81964,82028,82072,82140,82216,82376,
82492,82552,82596,82664,82736,82892,
83016,83080,83124,83188,83260,83424,
83536,83604,83644,83720,83792,83944,
84068,84108,84164,84232,84296,84472,
84604,84648,84688,84752,84816,84988,
85096,85164,85204,85268,85340,85508,
85620,85684,85728,85792,85868,86028,
86148,86208,86252,86316,86384,86552,
86672,86736,86776,86840,86912,87076,
87192,87252,87304,87368,87440,87604,
87732,87792,87836,87904,87980,88136,
88276,88324,88376,88440,88508,88676,
88808,88864,88912,88980,89060,89216,
89352,89412,89456,89520,89592,89760,
89924,89968,90000,90068,90140,90296,
90416,90488,90544,90608,90676,90844,
90972,91036,91084,91148,91224,91392,
91512,91564,91624,91688,91752,91920,
92044,92120,92156,92224,92300,92460,
92588,92652,92700,92764,92832,93004,
93096,93168,93228,93296,93364,93532,
"","",93764,93828,93896,94060,
94180,94244,94288,94352,94424,94588,
94708,94768,94812,94880,94948,95116,
95240,95292,95336,95400,95468,95636,
95756,95804,95856,95924,95992,96156,
96268,96328,96372,96436,96504,96672,
96788,96848,96888,96956,97020,97188,
97296,97360,97404,97468,97532,97704,
97816,97872,97916,97980,98044,98208,
98312,98376,98420,98484,98548,98716,
98824,98884,98924,98992,99064,99224,
99336,99396,99436,99500,99572,99732,
99824,99892,99940,100004,100076,100236,
100340,100400,100444,100512,100580,100748,
"","",100952,101016,101088,101256,
101352,101408,101464,101532,101600,101760,
101872,101940,101976,102044,102112,102276,
102384,102448,102496,102560,102628,102796,
102912,102972,103020,103088,103152,103320,
103440,103460,103544,103608,103680,103848,
103968,104016,104072,104136,104208,104372,
104504,104556,104600,104668,104736,104900,
105020,105084,105136,105200,105272,105432,
105564,105628,105672,105732,105808,105964,
106100,106160,106204,106268,106344,106496,
106644,106700,106748,106816,106876,107044,
107164,107228,107280,107344,107420,107580,
107724,107760,107812,107876,107940,108116,
108252,108316,108348,108412,108476,108644,
108772,108828,108876,108940,109008,109172,
109316,109372,109400,109468,109536,109696,
109816,109872,109920,109984,110056,110216,
110336,110396,110440,110504,110572,110736,
110840,110904,110952,111020,111088,111252,
111360,111416,111468,111532,111612,111760,
111868,111932,111980,112044,112120,112276,
112392,112444,112492,112556,112628,112788,
112892,112956,113004,113068,113136,113292,
113400,113464,113512,113576,113640,113808,
113916,113976,114024,114088,114156,114320,
114440,114496,114532,114600,114660,114824,
"","",115044,115112,115176,115340,
115456,115516,115560,115624,115696,115856,
115996,116044,116072,116136,116200,116372,
116476,116540,116588,116652,116724,116888,
117004,117060,117104,117172,117244,117400,
117520,117580,117628,117692,117768,117916,
118048,118108,118152,118220,118296,118452,
118588,118640,118688,118756,118824,118984,
119124,119172,119224,119292,119356,119524,
119672,119712,119764,119832,119908,120060,
120208,120272,120320,120388,120460,120616,
120768,120832,120876,120944,121012,121176,
121312,121380,121428,121496,121568,121728,
121880,121940,121984,122052,122120,122292,
122440,122500,122540,122608,122684,122840,
122976,123048,123096,123164,123232,123396,
123536,123600,123648,123712,123784,123948,
124068,124136,124192,124256,124324,124488,
124632,124684,124736,124800,124872,125032,
125160,125224,125276,125340,125420,125572,
125692,125756,125816,125880,125952,126108,
126244,126304,126348,126416,126484,126644,
126780,126840,126888,126952,127024,127184,
127320,127380,127424,127488,127552,127712,
127836,127904,127960,128020,128092,128248,
128380,128448,128492,128556,128636,128784,
128920,128984,129028,129092,129160,129320,
129464,129524,129568,129636,129704,129860,
129996,130060,130104,130168,130240,130396,
130536,130596,130640,130708,130776,130932,
131060,131132,131184,131248,131320,131480,
131624,131688,131728,131792,131860,132020,
132160,132216,132268,132332,132404,132560,
132720,132768,132800,132868,132940,133096,
133232,133292,133336,133400,133468,133632,
133756,133816,133864,133928,133996,134160,
134280,134340,134388,134452,134520,134684,
134816,134852,134908,134976,135044,135204,
135324,135384,135428,135496,135564,135724,
135852,135908,135952,136020,136088,136248,
136368,136428,136472,136540,136612,136772,
136876,136944,136992,137060,137132,137292,
137400,137460,137508,137576,137652,137804,
137916,137980,138024,138088,138160,138320,
138424,138492,138536,138604,138676,138832,
138940,139004,139056,139120,139192,139348,
139480,139540,139584,139652,139724,139880,
140024,140084,140128,140196,140272,140428,
140588,140644,140692,140764,140840,140992,
141216,141280,141324,141396,141464,141628,
141924,141984,142028,142100,142168,142336,
142716,142780,142824,142900,142972,143136,
143544,143612,143652,143724,143796,143964,
144356,144424,144464,144540,144608,144780,
145108,145172,145216,145292,145356,145532,
145828,145896,145940,146012,146080,146252,
146524,146588,146632,146700,146772,146940,
147168,147232,147276,147344,147416,147584,
147784,147848,147892,147964,148032,148204,
148376,148444,148484,148556,148632,148796,
148964,149028,149068,149136,149212,149376,
149532,149596,149636,149704,149780,149944,
150092,150152,150200,150268,150340,150500,
150648,150708,150748,150816,150892,151048,
151184,151248,151292,151360,151432,151592,
151724,151784,151832,151900,151976,152132,
152272,152328,152372,152436,152508,152668,
152788,152852,152900,152968,153040,153196,
153332,153384,153432,153496,153572,153728,
153860,153916,153960,154032,154104,154260,
154384,154448,154496,154560,154632,154792,
154916,154976,155028,155092,155164,155320,
155456,155512,155560,155628,155700,155856,
155992,156052,156096,156164,156232,156392,
156524,156584,156632,156696,156768,156928,
157056,157124,157168,157232,157308,157464,
157592,157656,157700,157768,157840,157996,
158132,158192,158240,158308,158376,158536,
158672,158736,158780,158848,158920,159076,
159216,159280,159320,159388,159464,159616,
159752,159816,159864,159928,160000,160156,
160296,160364,160404,160468,160540,160700,
160832,160896,160944,161012,161080,161240,
161372,161436,161480,161548,161620,161776,
161916,161972,162016,162084,162152,162312,
162444,162504,162548,162616,162688,162844,
162968,163036,163084,163148,163220,163380,
163504,163568,163612,163676,163748,163908,
164036,164092,164136,164200,164280,164432,
164564,164620,164660,164724,164804,164956,
165076,165136,165184,165248,165320,165476,
165600,165660,165704,165772,165844,166000,
166132,166184,166228,166296,166368,166524,
166660,166716,166756,166824,166900,167052,
167184,167248,167288,167352,167424,167584,
167712,167772,167812,167876,167948,168108,
168236,168292,168336,168400,168472,168632,
168764,168812,168860,168928,168996,169160,
169280,169340,169388,169452,169520,169684,
169800,169860,169904,169972,170040,170200,
170316,170380,170424,170488,170560,170720,
170840,170892,170936,171004,171076,171232,
171348,171408,171456,171524,171592,171756,
171872,171928,171976,172040,172112,172268,
172392,172448,172492,172560,172624,172788,
172900,172968,173008,173076,173148,173304,
173420,173480,173524,173588,173660,173808,
173952,174004,174044,174112,174184,174344,
174468,174524,174568,174636,174708,174864,
174984,175052,175096,175164,175232,175396,
175520,175580,175628,175692,175764,175924,
176056,176120,176160,176224,176300,176456,
176584,176648,176692,176756,176832,176988,
177112,177172,177220,177288,177364,177516,
177656,177708,177752,177820,177888,178052,
178188,178244,178288,178352,178428,178584,
178716,178780,178824,178888,178964,179120,
179252,179308,179352,179420,179492,179648,
179768,179836,179888,179952,180020,180188,
180308,180372,180420,180484,180556,180720,
180840,180900,180948,181016,181088,181248,
181372,181428,181472,181540,181612,181768,
181896,181956,181996,182064,182132,182292,
182416,182472,182512,182580,182648,182812,
182924,182984,183028,183096,183168,183328,
183444,183500,183544,183612,183680,183840,
183956,184012,184056,184124,184196,184352,
184472,184524,184564,184632,184704,184860,
184972,185028,185072,185140,185212,185372,
185476,185536,185580,185648,185716,185872,
"","",186080,186148,186220,186380,
186492,186540,186588,186656,186728,186880,
186992,187052,187088,187156,187228,187384,
187488,187540,187588,187656,187728,187880,
187992,188044,188080,188152,188220,188376,
188476,188536,188580,188644,188720,188872,
188972,189032,189072,189136,189212,189364,
189468,189524,189560,189628,189696,189856,
189948,190016,190052,190120,190184,190344,
190432,190496,190532,190600,190668,190828,
190908,190976,191016,191084,191152,191308,
191400,191460,191500,191564,191636,191788,
191876,191944,191980,192048,192120,192268,
192352,192424,192460,192528,192596,192756,
192840,192908,192948,193012,193084,193236,
193312,193388,193428,193496,193568,193720,
193812,193876,193916,193980,194052,194204,
194304,194376,194412,194476,194544,194704,
194812,194868,194908,194976,195048,195204,
195312,195372,195408,195476,195544,195704,
195816,195864,195908,195976,196052,196204,
196308,196368,196408,196472,196548,196704,
196808,196868,196908,196972,197044,197208,
197316,197376,197412,197476,197548,197708,
197816,197864,197908,197972,198044,198208,
198304,198368,198404,198472,198540,198700,
198796,198856,198892,198960,199028,199192,
199276,199336,199376,199444,199516,199672,
199760,199820,199864,199932,200008,200160,
200252,200316,200352,200420,200488,200648,
200736,200796,200840,200908,200976,201132,
201228,201284,201320,201388,201460,201612,
201700,201764,201804,201872,201940,202096,
202192,202252,202288,202356,202424,202580,
202668,202732,202772,202840,202912,203060,
203156,203216,203256,203324,203396,203544,
203644,203700,203744,203812,203884,204032,
204132,204192,204232,204300,204372,204520,
204620,204684,204724,204792,204860,205016,
205112,205176,205220,205284,205352,205504,
205620,205672,205712,205780,205848,206004,
206112,206176,206216,206284,206356,206508,
206632,206680,206724,206792,206860,207016,
207144,207188,207232,207300,207372,207524,
207640,207700,207740,207808,207880,208032,
208156,208212,208256,208320,208392,208548,
208672,208736,208776,208844,208912,209072,
209192,209256,209300,209364,209432,209592,
209712,209780,209828,209892,209960,210116,
210248,210308,210352,210416,210488,210640,
210776,210836,210876,210948,211016,211168,
211308,211368,211408,211476,211544,211700,
211832,211896,211940,212004,212072,212228,
212364,212420,212464,212532,212600,212760,
212888,212944,212988,213056,213124,213280,
213412,213468,213512,213576,213648,213804,
213932,213988,214032,214100,214168,214324,
214456,214508,214552,214616,214684,214844,
214968,215020,215068,215132,215204,215352,
215476,215536,215580,215644,215716,215868,
215988,216044,216088,216156,216224,216376,
216492,216552,216596,216660,216728,216884,
216996,217056,217096,217164,217232,217384,
217500,217560,217596,217664,217732,217884,
217996,218060,218100,218164,218236,218384,
218504,218560,218600,218668,218732,218888,
219008,219068,219108,219172,219240,219396,
219516,219580,219620,219684,219748,219908,
220036,220092,220128,220196,220264,220416,
220556,220612,220652,220716,220780,220952,
221076,221132,221176,221244,221312,221468,
221592,221656,221700,221764,221844,221992,
222120,222180,222216,222280,222352,222508,
222640,222696,222744,222808,222888,223040,
223160,223224,223268,223336,223408,223560,
223708,223768,223812,223880,223956,224104,
224280,224340,224384,224456,224528,224676,
224880,224948,224992,225064,225132,225292,
225540,225600,225644,225716,225784,225944,
226244,226312,226352,226428,226492,226656,
226932,227004,227044,227120,227180,227348,
227620,227692,227732,227808,227872,228036,
228296,228364,228408,228480,228548,228708,
228956,229020,229068,229136,229204,229372,
229600,229672,229716,229788,229852,230020,
230236,230300,230344,230416,230480,230644,
230832,230900,230940,231012,231076,231236,
231416,231480,231524,231596,231660,231824,
231996,232060,232104,232172,232244,232408,
232568,232628,232672,232740,232808,232968,
233132,233196,233236,233308,233376,233536,
233692,233756,233800,233868,233936,234096,
234248,234312,234356,234424,234492,234648,
234796,234860,234904,234968,235040,235196,
235344,235404,235448,235516,235584,235744,
235884,235944,235992,236056,236128,236284,
236428,236488,236532,236596,236668,236824,
236964,237024,237068,237132,237204,237356,
237496,237560,237600,237668,237736,237892,
238020,238088,238128,238196,238264,238420,
238552,238616,238656,238724,238784,238948,
239076,239136,239180,239244,239312,239468,
239600,239660,239704,239768,239840,239992,
240128,240192,240232,240300,240364,240528,
240672,240728,240772,240840,240908,241064,
241208,241268,241312,241380,241448,241604,
241748,241808,241852,241916,241984,242144,
242280,242340,242384,242448,242520,242676,
242812,242876,242920,242988,243056,243212,
243360,243416,243460,243524,243592,243752,
243896,243960,244004,244072,244144,244300,
244452,244516,244560,244632,244700,244856,
245028,245096,245136,245208,245272,245432,
245604,245676,245724,245800,245860,246024,
246236,246304,246344,246420,246484,246648,
246896,246956,247000,247072,247140,247300,
247556,247620,247660,247732,247800,247964,
248204,248268,248312,248384,248448,248616,
248848,248912,248952,249024,249088,249256,
249460,249528,249568,249640,249708,249872,
250068,250132,250172,250244,250312,250472,
250660,250724,250764,250832,250904,251068,
251240,251300,251344,251416,251480,251640,
251812,251880,251920,251992,252056,252224,
252376,252448,252496,252564,252632,252792,
252952,253020,253064,253132,253204,253360,
253520,253584,253628,253696,253764,253928,
254080,254140,254188,254256,254324,254484,
254636,254704,254748,254816,254888,255048,
255196,255260,255304,255372,255440,255600,
255756,255820,255864,255932,256000,256160,
256308,256368,256416,256480,256552,256712,
256860,256924,256968,257036,257104,257268,
257420,257484,257528,257596,257664,257832,
257988,258052,258092,258164,258228,258392,
258560,258620,258668,258736,258804,258964,
259132,259196,259236,259308,259376,259540,
259700,259768,259808,259876,259944,260112,
260268,260328,260372,260440,260508,260672,
260832,260892,260936,261008,261072,261236,
261396,261460,261504,261572,261640,261804,
261952,262016,262060,262128,262196,262360,
262508,262572,262616,262684,262756,262912,
263060,263124,263168,263236,263304,263468,
263612,263680,263724,263792,263864,264020,
264172,264236,264280,264348,264420,264576,
264740,264808,264852,264924,264992,265152,
265332,265396,265440,265512,265580,265740,
265936,266004,266048,266120,266188,266348,
266556,266616,266664,266736,266808,266964,
267164,267236,267276,267352,267424,267584,
267792,267864,267904,267976,268048,268212,
268420,268492,268536,268608,268672,268844,
269072,269144,269188,269260,269328,269496,
269724,269796,269836,269908,269980,270144,
270356,270424,270468,270540,270608,270776,
270984,271052,271096,271168,271232,271400,
271608,271672,271716,271788,271852,272020,
272208,272272,272316,272384,272456,272620,
272784,272852,272896,272968,273040,273196,
273368,273432,273472,273544,273620,273776,
273936,274000,274040,274112,274180,274348,
274500,274560,274604,274672,274740,274900,
275056,275120,275160,275228,275300,275460,
275608,275668,275712,275780,275852,276008,
276156,276216,276260,276328,276396,276556,
276700,276756,276796,276864,276936,277096,
277236,277292,277336,277404,277472,277632,
277764,277820,277868,277936,278008,278160,
278300,278360,278400,278468,278536,278696,
278828,278888,278928,278996,279064,279224,
279356,279412,279452,279516,279588,279748,
279876,279932,279972,280040,280108,280268,
280392,280456,280496,280560,280628,280788,
280912,280976,281020,281088,281152,281316,
281452,281508,281552,281624,281692,281852,
281992,282056,282096,282160,282232,282392,
282548,282612,282652,282720,282784,282952,
283120,283180,283224,283292,283364,283524,
283700,283760,283800,283868,283940,284104,
284252,284320,284360,284432,284504,284668,
284816,284884,284928,284996,285068,285228,
285368,285436,285480,285552,285624,285784,
285920,285984,286032,286100,286168,286332,
286476,286536,286580,286648,286720,286880,
287024,287092,287136,287204,287272,287436,
287584,287652,287696,287764,287840,287996,
288164,288232,288276,288348,288420,288576,
288764,288828,288868,288940,289016,289176,
289376,289448,289492,289564,289632,289796,
290016,290080,290124,290196,290264,290432,
290644,290708,290748,290820,290888,291056,
291256,291324,291364,291436,291508,291672,
291860,291920,291960,292032,292104,292264,
292440,292504,292548,292620,292700,292852,
293044,293112,293152,293228,293300,293456,
293640,293708,293744,293816,293892,294048,
294216,294280,294324,294392,294464,294628,
294776,294840,294888,294956,295028,295192,
295348,295412,295452,295524,295592,295756,
295908,295972,296016,296084,296152,296316,
296464,296528,296576,296644,296712,296876,
297028,297092,297136,297204,297276,297440,
297592,297656,297700,297768,297844,298000,
298152,298220,298268,298336,298412,298568,
298736,298796,298840,298912,298980,299144,
299312,299380,299424,299492,299564,299724,
299896,299960,300008,300080,300152,300312,
300476,300540,300584,300652,300728,300884,
301048,301116,301156,301228,301300,301460,
301612,301680,301724,301796,301864,302028,
302184,302252,302296,302364,302432,302596,
302756,302820,302868,302936,303008,303168,
303328,303396,303444,303512,303584,303748,
303904,303976,304020,304092,304168,304324,
304504,304568,304612,304684,304756,304916,
305096,305164,305208,305280,305352,305512,
305700,305764,305804,305876,305948,306108,
306280,306344,306384,306456,306532,306688,
306864,306928,306972,307044,307116,307276,
307456,307524,307572,307644,307716,307876,
308056,308124,308168,308240,308308,308472,
308652,308716,308760,308828,308900,309064,
309228,309300,309344,309412,309484,309648,
309812,309876,309920,309992,310060,310228,
310388,310456,310500,310568,310640,310800,
310964,311028,311072,311140,311212,311372,
311528,311600,311640,311712,311784,311948,
312096,312156,312204,312272,312344,312508,
312660,312724,312768,312840,312912,313072,
313224,313292,313336,313408,313480,313636,
313800,313872,313916,313988,314060,314220,
314396,314460,314504,314576,314648,314808,
314996,315068,315112,315184,315256,315420,
315640,315704,315748,315820,315892,316052,
316268,316340,316384,316456,316528,316692,
316900,316968,317012,317084,317160,317316,
317520,317588,317636,317704,317780,317944,
318132,318204,318248,318320,318392,318556,
318740,318808,318852,318924,318992,319160,
319340,319408,319456,319524,319596,319760,
319944,320012,320056,320124,320196,320360,
320540,320604,320652,320724,320792,320956,
321132,321196,321240,321312,321384,321548,
321720,321780,321824,321896,321968,322128,
322296,322364,322404,322476,322544,322712,
322876,322940,322984,323052,323124,323284,
323448,323508,323556,323624,323696,323856,
324020,324084,324124,324192,324264,324428,
324580,324644,324688,324760,324828,324992,
325140,325204,325248,325316,325388,325552,
325704,325764,325804,325872,325944,326104,
326256,326316,326360,326428,326500,326660,
326804,326860,326908,326976,327048,327204,
327348,327408,327452,327516,327588,327752,
327888,327948,327992,328060,328132,328288,
328432,328492,328532,328600,328672,328832,
328972,329040,329080,329148,329220,329380,
329516,329580,329624,329692,329756,329920,
330060,330124,330168,330236,330312,330468,
330612,330672,330712,330780,330856,331012,
331156,331220,331268,331336,331412,331568,
331728,331792,331832,331904,331980,332136,
332320,332376,332420,332492,332572,332728,
332944,333004,333040,333112,333188,333352,
333620,333692,333736,333812,333880,334052,
334328,334404,334448,334524,334592,334764,
335020,335092,335140,335212,335288,335456,
335684,335756,335800,335872,335948,336120,
336332,336404,336452,336524,336600,336768,
336968,337032,337076,337148,337220,337392,
337572,337640,337688,337760,337836,338000,
338172,338244,338288,338364,338436,338600,
338804,338872,338916,338988,339064,339232,
339436,339512,339556,339628,339700,339872,
340096,340164,340212,340284,340360,340524,
340752,340824,340868,340936,341012,341180,
341376,341448,341492,341564,341636,341804,
342004,342072,342120,342188,342264,342428,
342604,342668,342712,342784,342864,343028,
343196,343268,343312,343384,343460,343624,
343780,343848,343892,343964,344036,344200,
344356,344420,344464,344536,344612,344772,
344924,344984,345032,345100,345180,345336,
345484,345548,345596,345664,345736,345900,
346036,346104,346152,346220,346292,346456,
346596,346660,346708,346772,346848,347004,
347148,347212,347256,347324,347392,347560,
347688,347756,347804,347872,347944,348108,
348240,348300,348348,348416,348488,348648,
348784,348848,348892,348960,349032,349192,
349312,349380,349432,349496,349568,349732,
349848,349916,349964,350032,350104,350264,
350376,350444,350496,350560,350632,350796,
350916,350976,351028,351096,351168,351328,
351452,351512,351560,351628,351700,351860,
351988,352052,352096,352164,352236,352396,
352524,352588,352632,352700,352772,352928,
353072,353132,353176,353244,353316,353476,
353616,353684,353724,353792,353868,354028,
354164,354232,354276,354348,354420,354580,
354724,354792,354836,354904,354980,355140,
355288,355360,355400,355472,355540,355704,
355856,355920,355964,356032,356104,356272,
356412,356484,356532,356604,356676,356836,
356992,357056,357100,357168,357244,357404,
357560,357624,357672,357740,357816,357976,
358128,358196,358244,358312,358384,358548,
358708,358772,358820,358888,358960,359124,
359288,359356,359400,359472,359540,359708,
359864,359936,359976,360048,360116,360280,
360440,360504,360548,360620,360684,360852,
361012,361076,361120,361188,361260,361420,
361552,361632,361680,361752,361820,361988,
362128,362196,362240,362308,362380,362544,
362680,362748,362796,362864,362936,363100,
363240,363300,363348,363412,363484,363644,
363780,363848,363892,363960,364032,364192,
364324,364392,364440,364508,364580,364740,
364872,364940,364988,365056,365124,365288,
365432,365492,365544,365612,365680,365844,
365984,366052,366104,366172,366248,366408,
366556,366620,366668,366736,366812,366972,
367132,367200,367244,367316,367388,367552,
367716,367784,367828,367900,367976,368132,
368296,368364,368412,368484,368556,368716,
368888,368952,368996,369068,369140,369304,
369476,369540,369584,369656,369728,369888,
370056,370124,370172,370244,370316,370476,
370644,370712,370756,370824,370896,371060,
371228,371292,371340,371412,371476,371640,
371816,371880,371924,371996,372064,372232,
372396,372460,372500,372568,372636,372792,
372960,373024,373072,373136,373212,373372,
373512,373576,373628,373696,373768,373928,
374072,374132,374180,374248,374324,374480,
374624,374684,374732,374796,374872,375032,
375156,375224,375276,375340,375412,375576,
375700,375768,375816,375884,375956,376116,
376260,376320,376364,376432,376504,376664,
376804,376868,376916,376984,377056,377216,
377360,377424,377472,377540,377608,377776,
377924,377988,378032,378100,378172,378336,
378476,378540,378592,378656,378728,378888,
379040,379100,379148,379216,379284,379448,
379592,379660,379704,379772,379840,380008,
380148,380212,380260,380324,380396,380556,
380700,380764,380808,380872,380944,381108,
381244,381308,381352,381420,381488,381648,
381788,381852,381896,381964,382036,382192,
382332,382396,382444,382512,382584,382744,
382884,382940,382992,383056,383128,383288,
383420,383484,383532,383600,383672,383836,
383968,384036,384084,384152,384228,384388,
384536,384604,384652,384720,384792,384956,
385104,385168,385216,385288,385368,385520,
385692,385760,385808,385880,385952,386112,
386320,386380,386432,386504,386576,386736,
386976,387044,387092,387164,387236,387400,
387656,387728,387772,387848,387920,388084,
388364,388432,388476,388556,388620,388788,
389052,389124,389168,389248,389312,389484,
389716,389792,389852,389928,390000,390168,
390404,390480,390528,390600,390672,390840,
391084,391156,391204,391276,391348,391516,
391752,391820,391868,391940,392012,392184,
392408,392476,392520,392592,392664,392836,
393052,393124,393168,393240,393308,393480,
393684,393760,393812,393884,393952,394124,
394336,394412,394456,394532,394604,394768,
394984,395056,395100,395172,395244,395416,
395620,395692,395740,395812,395880,396052,
396256,396324,396376,396448,396520,396688,
396872,396948,397000,397076,397148,397312,
397524,397588,397632,397700,397776,397940,
398144,398212,398260,398332,398400,398572,
398772,398844,398892,398964,399036,399200,
399400,399468,399516,399584,399660,399820,
400028,400092,400140,400212,400280,400448,
400644,400716,400764,400840,400912,401072,
401272,401340,401388,401460,401528,401696,
401892,401960,402008,402080,402152,402316,
402508,402580,402628,402700,402776,402932,
403128,403200,403248,403316,403392,403556,
403736,403808,403856,403928,404000,404164,
404344,404412,404460,404532,404600,404768,
404948,405008,405064,405132,405200,405372,
405544,405612,405664,405732,405804,405968,
406148,406216,406264,406336,406408,406568,
406756,406816,406868,406936,407008,407172,
407336,407408,407460,407532,407612,407772,
407944,408008,408060,408132,408208,408368,
408536,408600,408656,408728,408800,408960,
409148,409208,409256,409328,409404,409568,
409732,409804,409852,409924,410000,410160,
410348,410408,410452,410524,410604,410760,
410932,411004,411052,411124,411200,411356,
411544,411608,411660,411728,411800,411964,
412140,412208,412260,412332,412404,412564,
412744,412812,412860,412932,413004,413168,
413352,413412,413464,413536,413612,413772,
413956,414020,414068,414140,414216,414376,
414548,414612,414668,414736,414812,414976,
415152,415216,415264,415332,415404,415568,
415748,415800,415856,415924,416008,416160,
416328,416400,416444,416516,416596,416748,
416920,416988,417036,417108,417196,417348,
417520,417588,417632,417700,417772,417940,
418108,418172,418228,418296,418372,418536,
418708,418772,418816,418888,418960,419124,
419300,419364,419416,419488,419560,419720,
419892,419964,420012,420084,420160,420320,
420512,420580,420628,420696,420772,420932,
421136,421204,421252,421324,421392,421560,
421764,421828,421880,421948,422020,422188,
422392,422456,422504,422576,422648,422816,
423004,423080,423132,423204,423272,423440,
423636,423716,423760,423832,423908,424072,
424276,424344,424392,424464,424540,424704,
424900,424968,425016,425088,425164,425328,
425520,425592,425640,425712,425784,425952,
426144,426216,426260,426332,426404,426572,
426764,426836,426884,426956,427028,427196,
427380,427456,427500,427572,427644,427808,
427996,428056,428108,428176,428252,428416,
428596,428664,428712,428780,428860,429020,
429200,429264,429316,429384,429460,429624,
429804,429872,429920,429992,430064,430228,
430416,430480,430528,430600,430668,430836,
431020,431092,431140,431212,431288,431452,
431640,431712,431756,431832,431904,432068,
432256,432332,432380,432452,432528,432692,
432892,432968,433016,433088,433164,433324,
433536,433608,433656,433728,433800,433968,
434188,434260,434304,434376,434448,434616,
434828,434900,434948,435016,435088,435256,
435472,435532,435584,435656,435728,435896,
436092,436164,436208,436280,436356,436516,
436720,436788,436836,436908,436984,437148,
437336,437408,437456,437524,437596,437764,
437948,438016,438064,438136,438212,438376,
438552,438616,438668,438736,438808,438976,
439156,439224,439268,439340,439412,439576,
439756,439828,439872,439944,440020,440184,
440364,440436,440480,440552,440628,440792,
440980,441052,441096,441168,441244,441404,
441600,441668,441716,441784,441864,442028,
442216,442288,442336,442408,442480,442644,
442836,442900,442952,443024,443100,443260,
443440,443508,443560,443632,443704,443864,
444044,444112,444160,444232,444308,444472,
444648,444720,444764,444836,444912,445076,
445252,445328,445376,445448,445520,445684,
445876,445940,445992,446064,446140,446296,
446476,446556,446604,446676,446752,446916,
447108,447172,447220,447292,447368,447524,
447728,447788,447840,447908,447984,448144,
448320,448400,448452,448524,448604,448764,
448960,449032,449072,449140,449224,449384,
449568,449640,449688,449760,449844,449996,
450180,450252,450304,450380,450456,450616,
450808,450892,450920,450992,451068,451232,
451428,451496,451544,451616,451696,451856,
452056,452124,452172,452244,452320,452484,
452672,452744,452792,452860,452940,453100,
453288,453352,453404,453476,453548,453716,
453904,453968,454020,454088,454164,454328,
454508,454580,454628,454696,454776,454932,
455116,455184,455236,455308,455384,455544,
455728,455796,455844,455916,455996,456156,
456348,456416,456460,456532,456604,456772,
456956,457016,457068,457140,457212,457380,
457564,457616,457676,457744,457832,457980,
458152,458228,458280,458352,458432,458592,
458768,458836,458880,458952,459024,459192,
459380,459448,459492,459564,459640,459800,
459996,460060,460108,460180,460256,460416,
460608,460676,460728,460796,460872,461036,
461224,461296,461344,461416,461492,461660,
461848,461916,461964,462032,462108,462276,
462452,462528,462576,462648,462724,462888,
463068,463128,463176,463248,463320,463484,
463648,463716,463764,463836,463908,464076,
464236,464300,464348,464420,464488,464656,
464812,464864,464924,464996,465064,465236,
465384,465448,465492,465560,465636,465796,
465940,466008,466052,466120,466192,466360,
466496,466560,466604,466672,466748,466912,
467044,467104,467152,467220,467296,467460,
467592,467652,467700,467768,467840,468004,
468136,468200,468240,468308,468380,468544,
468664,468732,468780,468844,468916,469084,
469212,469260,469312,469376,469452,469612,
469752,469800,469840,469908,469984,470144,
470276,470328,470368,470436,470504,470672,
470800,470852,470892,470960,471036,471196,
471324,471388,471428,471500,471572,471732,
471868,471920,471960,472028,472100,472268,
472376,472444,472488,472556,472628,472792,
472900,472964,473008,473076,473144,473312,
473424,473488,473528,473596,473664,473832,
473948,474000,474044,474112,474188,474348,
474456,474520,474560,474628,474700,474864,
474972,475036,475080,475144,475220,475380,
475488,475552,475596,475664,475732,475900,
476012,476076,476116,476184,476256,476420,
476548,476608,476652,476716,476792,476956,
477108,477168,477208,477276,477352,477516,
477692,477760,477796,477868,477944,478116,
478316,478384,478424,478496,478576,478744,
478956,479024,479064,479136,479212,479380,
479592,479656,479696,479768,479844,480016,
480220,480284,480320,480392,480468,480640,
480820,480880,480920,480988,481068,481232,
481396,481460,481496,481564,481644,481808,
481964,482020,482068,482136,482212,482376,
482524,482580,482624,482692,482768,482932,
483080,483136,483176,483244,483324,483484,
483628,483680,483720,483788,483868,484032,
484168,484224,484272,484336,484412,484576,
484716,484772,484808,484876,484952,485116,
485244,485300,485348,485412,485488,485652,
485780,485836,485876,485944,486016,486180,
486304,486364,486404,486472,486540,486708,
486828,486888,486932,486996,487068,487236,
487352,487408,487456,487520,487592,487760,
487876,487940,487980,488044,488116,488284,
488396,488452,488500,488568,488636,488804,
488912,488972,489016,489084,489152,489316,
489436,489492,489536,489600,489672,489836,
489956,490012,490056,490124,490196,490360,
490472,490532,490572,490640,490708,490872,
490992,491044,491088,491156,491232,491392,
491508,491564,491608,491672,491748,491904,
492016,492080,492120,492188,492256,492424,
492520,492580,492628,492696,492768,492932,
493036,493092,493132,493200,493272,493432,
493552,493604,493640,493708,493780,493940,
494040,494104,494148,494216,494288,494452,
494560,494620,494664,494732,494804,494960,
495104,495172,495204,495272,495344,495504,
495644,495708,495752,495820,495888,496052,
496204,496272,496312,496380,496452,496616,
496768,496824,496868,496936,497008,497168,
497312,497372,497416,497480,497556,497716,
497860,497920,497960,498024,498100,498256,
498388,498452,498496,498560,498628,498800,
498924,498980,499028,499096,499172,499328,
499472,499512,499556,499624,499696,499860,
499992,500048,500092,500156,500232,500392,
500512,500572,500616,500684,500752,500916,
501036,501092,501140,501204,501284,501436,
501572,501620,501672,501740,501812,501968,
502100,502164,502204,502272,502344,502500,
502624,502688,502732,502800,502872,503032,
503156,503216,503260,503324,503400,503556,
503684,503740,503792,503860,503932,504084,
504228,504292,504332,504396,504468,504632,
504756,504824,504872,504940,505012,505176,
505324,505380,505428,505492,505560,505724,
505876,505936,505984,506052,506120,506288,
506436,506496,506544,506612,506672,506844,
506996,507056,507108,507172,507252,507404,
507540,507608,507668,507728,507808,507964,
508112,508180,508224,508288,508360,508520,
508664,508724,508772,508840,508912,509068,
509232,509272,509320,509384,509460,509624,
509760,509820,509868,509932,510000,510164,
510316,510372,510420,510484,510556,510716,
510864,510928,510968,511036,511108,511272,
511408,511472,511516,511584,511660,511816,
511952,512020,512064,512128,512204,512360,
512496,512560,512604,512668,512740,512900,
513032,513092,513140,513204,513272,513436,
513560,513628,513672,513736,513808,513968,
514092,514160,514200,514268,514340,514500,
514620,514680,514728,514792,514864,515024,
515152,515212,515252,515320,515388,515552,
515672,515732,515776,515840,515908,516068,
516188,516248,516296,516360,516432,516588,
516708,516772,516812,516880,516952,517108,
517232,517288,517332,517400,517472,517628,
517744,517812,517860,517928,518000,518156,
518292,518356,518400,518468,518544,518700,
518852,518916,518956,519028,519096,519256,
519428,519492,519536,519608,519676,519836,
520028,520096,520136,520208,520276,520436,
520636,520696,520740,520812,520880,521040,
521232,521292,521336,521408,521476,521636,
521828,521896,521936,522008,522076,522240,
522424,522492,522532,522604,522672,522836,
523004,523068,523108,523176,523248,523408,
523588,523652,523692,523764,523832,523996,
524160,524224,524268,524336,524408,524572,
524732,524792,524836,524904,524976,525136,
525284,525348,525396,525464,525532,525696,
525840,525900,525944,526012,526092,526244,
526376,526448,526496,526560,526636,526792,
526940,527000,527044,527112,527184,527348,
527488,527556,527604,527672,527740,527904,
528060,528124,528168,528240,528308,528472,
528636,528700,528744,528816,528888,529048,
529212,529280,529324,529396,529464,529628,
529804,529872,529912,529988,530056,530220,
530400,530464,530508,530580,530652,530812,
530984,531052,531092,531168,531240,531396,
531576,531640,531688,531760,531832,531992,
532172,532232,532276,532348,532420,532584,
532756,532820,532864,532936,533008,533172,
533348,533408,533452,533524,533592,533756,
533928,533992,534036,534108,534180,534344,
534516,534580,534620,534692,534760,534920,
535096,535160,535204,535276,535344,535508,
535676,535740,535780,535852,535920,536084,
536252,536316,536360,536428,536500,536664,
536832,536892,536936,537008,537072,537236,
537404,537464,537508,537580,537648,537812,
537972,538032,538076,538148,538220,538380,
538536,538596,538640,538708,538780,538944,
539096,539160,539200,539268,539340,539500,
539656,539720,539760,539828,539900,540060,
540208,540268,540312,540380,540452,540608,
540756,540816,540860,540928,541000,541156,
541308,541364,541404,541472,541548,541704,
541844,541904,541948,542016,542088,542244,
542388,542448,542484,542552,542624,542784,
542916,542972,543016,543084,543152,543312,
543444,543496,543544,543612,543696,543844,
543964,544028,544072,544140,544216,544372,
544496,544552,544592,544660,544724,544892,
544996,545052,545108,545176,545244,545404,
545528,545596,545640,545708,545784,545940,
546084,546144,546196,546268,546340,546500,
546728,546804,546844,546916,546988,547148,
547456,547528,547568,547644,547712,547876,
548424,548496,548536,548612,548680,548856,
549424,549500,549532,549612,549676,549860,
550348,550416,550456,550532,550604,550780,
551124,551192,551236,551308,551384,551556,
551880,551952,552000,552076,552144,552320,
552632,552704,552752,552824,552896,553068,
553336,553412,553456,553532,553600,553776,
554036,554112,554156,554228,554300,554472,
554732,554808,554852,554928,554996,555168,
555416,555492,555536,555612,555680,555856,
556084,556164,556208,556284,556356,556528,
556756,556820,556868,556940,557012,557184,
557396,557472,557516,557588,557656,557836,
558044,558120,558164,558236,558308,558480,
558692,558768,558812,558888,558960,559128,
559348,559424,559468,559540,559608,559784,
560004,560076,560124,560196,560264,560440,
560652,560732,560776,560852,560920,561092,
561312,561376,561424,561500,561572,561744,
561968,562040,562088,562164,562228,562404,
562636,562712,562756,562828,562896,563072,
563284,563360,563404,563480,563548,563720,
563932,564008,564052,564128,564200,564372,
564588,564656,564704,564776,564844,565020,
565236,565316,565360,565432,565500,565676,
565888,565968,566012,566088,566156,566328,
566552,566624,566672,566744,566816,566984,
567216,567292,567336,567412,567480,567652,
567880,567960,568004,568080,568148,568324,
568556,568632,568676,568748,568820,568992,
569228,569300,569348,569420,569488,569664,
569884,569968,570016,570092,570156,570332,
570564,570640,570684,570764,570828,571004,
571228,571304,571348,571420,571492,571664,
571888,571968,572012,572088,572156,572328,
572556,572628,572676,572748,572816,572992,
573204,573284,573332,573404,573476,573648,
573860,573932,573980,574052,574124,574296,
574516,574584,574632,574704,574776,574948,
575160,575240,575288,575364,575428,575608,
575816,575892,575940,576016,576084,576260,
576476,576544,576592,576664,576736,576908,
577116,577192,577240,577312,577380,577556,
577780,577852,577900,577976,578040,578220,
578440,578516,578564,578636,578708,578880,
579116,579184,579228,579304,579376,579548,
579772,579852,579900,579976,580040,580220,
580464,580544,580592,580668,580736,580908,
581164,581244,581292,581368,581432,581608,
581884,581960,582008,582084,582148,582328,
582604,582684,582732,582808,582876,583052,
583332,583412,583456,583536,583604,583780,
584052,584136,584180,584256,584324,584504,
584784,584860,584908,584980,585052,585224,
585504,585576,585624,585700,585768,585944,
586216,586288,586336,586412,586480,586656,
586932,587012,587060,587132,587200,587380,
587656,587732,587780,587860,587924,588104,
588372,588448,588492,588572,588636,588816,
589068,589148,589192,589264,589336,589512,
589772,589852,589896,589972,590040,590220,
590472,590548,590596,590668,590740,590916,
591164,591248,591292,591368,591436,591612,
591856,591936,591980,592056,592124,592304,
592560,592640,592684,592760,592828,593004,
593256,593340,593384,593460,593532,593708,
593968,594044,594088,594164,594232,594412,
594672,594748,594796,594872,594944,595120,
595384,595460,595508,595584,595652,595828,
596088,596168,596212,596292,596360,596540,
596788,596868,596916,596988,597064,597236,
597472,597560,597600,597676,597748,597924,
598168,598248,598292,598368,598440,598612,
598856,598932,598980,599056,599132,599300,
599540,599620,599664,599740,599816,599976,
600232,600308,600352,600428,600504,600672,
600920,601000,601044,601116,601192,601364,
601620,601696,601740,601816,601888,602064,
602316,602400,602444,602516,602588,602764,
603016,603096,603144,603220,603288,603468,
603716,603796,603836,603912,603984,604160,
604400,604480,604520,604596,604668,604844,
605084,605156,605204,605280,605348,605528,
605764,605848,605892,605968,606036,606216,
606444,606532,606576,606656,606724,606904,
607136,607216,607260,607336,607408,607588,
607832,607908,607952,608028,608100,608276,
608524,608608,608652,608728,608796,608976,
609220,609296,609340,609416,609488,609664,
609916,609992,610036,610108,610184,610360,
610608,610692,610740,610816,610884,611064,
611300,611380,611428,611500,611572,611752,
611992,612072,612116,612192,612264,612440,
612684,612760,612804,612884,612952,613132,
613364,613444,613492,613572,613640,613820,
614056,614136,614184,614260,614332,614508,
614752,614824,614868,614944,615020,615196,
615432,615512,615556,615632,615704,615880,
616120,616196,616240,616316,616388,616564,
616800,616884,616928,617004,617072,617252,
617480,617560,617604,617680,617752,617928,
618156,618232,618280,618352,618424,618604,
618820,618896,618944,619020,619092,619268,
619484,619556,619604,619680,619752,619928,
620140,620212,620256,620332,620404,620584,
620792,620868,620916,620988,621060,621240,
621448,621528,621572,621652,621720,621900,
622116,622192,622240,622316,622388,622564,
622792,622872,622916,622988,623064,623240,
623484,623572,623620,623696,623764,623944,
624188,624268,624312,624388,624464,624640,
624876,624960,625000,625076,625148,625328,
625564,625652,625696,625772,625844,626024,
626268,626348,626396,626472,626544,626724,
626964,627040,627088,627164,627232,627412,
627656,627732,627780,627856,627924,628104,
628352,628432,628480,628552,628624,628804,
629052,629132,629176,629252,629320,629504,
629744,629824,629868,629940,630016,630192,
630436,630512,630560,630632,630704,630884,
631120,631200,631244,631320,631392,631572,
631804,631884,631928,632004,632072,632256,
632484,632568,632612,632688,632760,632940,
633176,633256,633300,633376,633448,633628,
633876,633956,634004,634080,634148,634332,
634568,634652,634696,634776,634844,635028,
635280,635352,635396,635468,635544,635720,
635976,636052,636100,636172,636244,636424,
636684,636764,636808,636884,636952,637136,
637396,637480,637524,637600,637672,637852,
638124,638204,638248,638324,638396,638576,
638852,638928,638976,639052,639124,639304,
639580,639660,639708,639780,639856,640032,
640316,640388,640432,640508,640584,640764,
641028,641100,641144,641220,641296,641472,
641724,641808,641852,641928,642000,642180,
642428,642512,642556,642628,642704,642884,
643128,643212,643252,643332,643404,643584,
643832,643904,643952,644024,644100,644276,
644524,644604,644644,644720,644792,644976,
645236,645312,645360,645432,645504,645688,
645936,646016,646060,646136,646212,646392,
646640,646716,646760,646836,646908,647092,
647332,647412,647460,647536,647604,647788,
648032,648116,648160,648236,648308,648492,
648744,648820,648868,648944,649016,649196,
649444,649516,649560,649636,649708,649888,
650132,650208,650252,650332,650404,650584,
650828,650904,650952,651024,651100,651280,
651516,651592,651640,651716,651788,651968,
652196,652276,652320,652396,652472,652652,
652872,652948,652996,653068,653144,653324,
653556,653632,653676,653752,653824,654004,
654244,654324,654368,654444,654516,654700,
654928,655008,655052,655128,655204,655384,
655604,655684,655728,655804,655876,656056,
656284,656364,656412,656488,656556,656740,
656980,657056,657104,657180,657252,657432,
657676,657756,657800,657876,657948,658132,
658376,658452,658496,658572,658644,658828,
659076,659152,659196,659272,659344,659528,
659764,659844,659888,659964,660036,660216,
660444,660528,660572,660648,660720,660904,
661132,661208,661252,661328,661404,661584,
661816,661896,661940,662016,662092,662272,
662512,662592,662636,662708,662784,662964,
663196,663280,663324,663400,663472,663652,
663888,663972,664016,664092,664164,664348,
664580,664660,664708,664780,664856,665036,
665276,665352,665400,665472,665548,665728,
665956,666036,666080,666156,666228,666412,
666632,666708,666756,666832,666908,667084,
667316,667392,667440,667516,667588,667772,
667996,668076,668120,668196,668268,668452,
668680,668756,668800,668876,668952,669132,
669360,669436,669480,669556,669628,669812,
670052,670132,670176,670252,670324,670508,
670756,670832,670876,670952,671028,671208,
671444,671524,671568,671644,671716,671900,
672132,672212,672256,672332,672408,672588,
672832,672908,672956,673028,673104,673284,
673524,673600,673644,673724,673796,673976,
674200,674284,674328,674404,674476,674660,
674884,674964,675008,675088,675160,675340,
675564,675648,675692,675772,675844,676024,
676264,676340,676388,676464,676540,676716,
676952,677024,677068,677144,677220,677400,
677624,677700,677748,677820,677900,678076,
678296,678376,678420,678496,678568,678752,
678976,679056,679104,679180,679252,679432,
679664,679744,679788,679864,679940,680120,
680356,680432,680476,680552,680628,680808,
681048,681132,681172,681252,681320,681508,
681756,681836,681880,681956,682028,682212,
682456,682540,682584,682660,682736,682916,
683172,683248,683292,683368,683440,683624,
683872,683948,683996,684068,684144,684324,
684568,684652,684696,684776,684844,685032,
685268,685348,685392,685468,685544,685724,
685956,686036,686080,686156,686228,686412,
686644,686720,686764,686840,686912,687096,
687324,687404,687448,687524,687600,687780,
688008,688088,688136,688212,688288,688464,
688712,688784,688828,688900,688976,689156,
689404,689488,689532,689608,689680,689864,
690124,690204,690248,690324,690400,690580,
690832,690912,690956,691032,691108,691288,
691548,691620,691668,691744,691820,692000,
692260,692340,692388,692464,692540,692720,
692976,693052,693100,693176,693248,693432,
693676,693752,693796,693872,693948,694128,
694372,694452,694492,694572,694644,694828,
695064,695144,695192,695264,695340,695524,
695752,695828,695876,695948,696024,696204,
696440,696512,696560,696632,696708,696892,
697120,697200,697244,697320,697392,697576,
697816,697896,697944,698020,698092,698276,
698520,698596,698640,698720,698792,698976,
699204,699288,699332,699408,699480,699664,
699892,699972,700016,700092,700164,700348,
700576,700652,700696,700772,700848,701028,
701252,701332,701380,701456,701532,701712,
701936,702012,702056,702132,702212,702392,
702604,702684,702732,702808,702880,703064,
703284,703364,703408,703484,703556,703744,
703956,704032,704080,704156,704232,704416,
704632,704704,704752,704828,704904,705084,
705304,705376,705424,705496,705572,705756,
705968,706048,706096,706172,706244,706432,
706644,706724,706772,706848,706920,707104,
707312,707392,707436,707512,707588,707772,
707988,708064,708108,708184,708260,708440,
708664,708736,708784,708860,708936,709116,
709332,709416,709460,709536,709612,709792,
710000,710080,710128,710204,710280,710460,
710680,710752,710800,710872,710948,711128,
711352,711428,711476,711548,711624,711808,
712028,712108,712152,712228,712304,712484,
712708,712780,712828,712900,712976,713160,
713368,713448,713492,713572,713644,713828,
714040,714120,714164,714240,714316,714496,
714712,714788,714836,714912,714988,715168,
715384,715460,715508,715584,715660,715840,
716068,716140,716188,716264,716340,716520,
716760,716840,716888,716964,717036,717220,
717464,717544,717592,717664,717744,717924,
718160,718244,718288,718364,718440,718620,
718856,718936,718984,719060,719132,719316,
719556,719636,719680,719756,719828,720012,
720248,720328,720372,720452,720524,720708,
720940,721016,721064,721140,721216,721396,
721620,721700,721748,721820,721900,722080,
722316,722388,722436,722508,722584,722768,
722996,723084,723124,723204,723276,723460,
723688,723772,723812,723892,723964,724148,
724376,724456,724500,724576,724652,724836,
725076,725152,725196,725272,725348,725528,
725780,725860,725904,725980,726056,726236,
726492,726568,726616,726692,726768,726948,
727204,727288,727332,727408,727484,727664,
727928,728004,728048,728124,728200,728384,
728652,728728,728772,728852,728924,729108,
729380,729452,729496,729572,729644,729828,
730088,730164,730208,730284,730356,730544,
730796,730880,730924,731000,731072,731260,
731524,731604,731648,731724,731800,731980,
732236,732312,732356,732432,732508,732692,
732928,733008,733052,733128,733204,733388,
733624,733700,733748,733820,733900,734080,
734324,734404,734452,734528,734600,734788,
735036,735112,735160,735232,735308,735492,
735732,735812,735852,735928,736004,736188,
736432,736504,736548,736624,736700,736880,
737120,737200,737244,737320,737396,737580,
737812,737896,737940,738016,738092,738272,
738516,738588,738632,738708,738784,738968,
739204,739280,739324,739400,739476,739656,
739904,739976,740024,740100,740172,740356,
740596,740680,740724,740800,740876,741056,
741312,741388,741436,741508,741588,741768,
742028,742100,742148,742224,742300,742484,
742736,742816,742860,742936,743012,743196,
743436,743520,743560,743636,743712,743892,
744124,744204,744248,744324,744400,744584,
744804,744884,744928,745008,745080,745268,
745484,745564,745608,745684,745760,745944,
746156,746240,746284,746364,746436,746620,
746836,746916,746964,747040,747112,747296,
747520,747596,747640,747716,747792,747976,
748204,748288,748332,748412,748484,748668,
748904,748984,749028,749100,749180,749360,
749600,749680,749724,749800,749876,750056,
750312,750384,750432,750504,750580,750764,
751012,751092,751140,751216,751292,751476,
751724,751804,751848,751924,752000,752184,
752436,752508,752556,752628,752708,752888,
753136,753212,753256,753336,753408,753592,
753832,753908,753956,754032,754108,754292,
754520,754600,754644,754720,754796,754980,
755196,755276,755324,755400,755476,755660,
755880,755956,756004,756080,756152,756340,
756556,756636,756680,756760,756832,757020,
757236,757316,757360,757436,757512,757696,
757916,757992,758036,758112,758188,758372,
758588,758668,758712,758788,758864,759048,
759264,759340,759388,759464,759540,759720,
759948,760020,760068,760144,760220,760400,
760624,760704,760752,760824,760904,761084,
761320,761396,761440,761516,761592,761776,
762004,762084,762128,762208,762280,762464,
762684,762764,762812,762888,762960,763148,
763372,763456,763500,763576,763652,763836,
764064,764140,764188,764260,764340,764520,
764752,764828,764876,764948,765024,765208,
765432,765516,765560,765632,765708,765892,
766120,766200,766244,766324,766400,766580,
766804,766884,766932,767008,767080,767264,
767496,767572,767620,767696,767768,767952,
768176,768256,768300,768376,768456,768636,
768868,768940,768988,769060,769140,769320,
769540,769616,769660,769736,769816,769996,
770216,770292,770340,770416,770492,770676,
770888,770968,771012,771088,771164,771348,
771556,771632,771680,771756,771832,772016,
772224,772300,772348,772424,772504,772680,
772896,772976,773024,773100,773172,773356,
773568,773648,773696,773772,773844,774028,
774240,774320,774364,774444,774516,774700,
774924,775000,775044,775124,775200,775380,
775604,775684,775728,775804,775880,776064,
776284,776364,776412,776488,776560,776744,
776964,777048,777092,777172,777248,777428,
777648,777732,777780,777856,777932,778112,
778348,778424,778468,778544,778620,778804,
779036,779112,779156,779232,779308,779492,
779716,779796,779840,779916,779992,780176,
780404,780480,780528,780604,780676,780860,
781092,781172,781220,781296,781368,781556,
781796,781880,781924,782000,782076,782260,
782504,782576,782624,782700,782772,782956,
783204,783280,783324,783400,783472,783656,
783904,783980,784024,784100,784176,784360,
784592,784672,784716,784792,784868,785052,
785280,785360,785408,785484,785560,785744,
785964,786048,786092,786172,786244,786432,
786648,786728,786776,786852,786928,787108,
787332,787412,787460,787536,787612,787796,
788016,788096,788144,788220,788296,788480,
788712,788780,788828,788900,788980,789160,
789388,789468,789516,789588,789664,789848,
790080,790160,790204,790280,790352,790540,
790764,790848,790892,790972,791044,791228,
791460,791532,791580,791656,791732,791916,
792152,792228,792276,792352,792428,792612,
792844,792924,792972,793048,793120,793308,
793540,793612,793660,793736,793812,793992,
794212,794292,794340,794416,794492,794676,
794888,794968,795012,795092,795164,795348,
795560,795640,795688,795764,795840,796024,
796240,796320,796368,796444,796520,796700,
796928,797008,797052,797132,797208,797388,
797616,797692,797736,797812,797892,798072,
798288,798372,798416,798492,798568,798752,
798980,799060,799104,799180,799260,799440,
799672,799744,799796,799868,799948,800128,
800352,800432,800476,800552,800628,800812,
801036,801108,801156,801228,801308,801488,
801712,801784,801828,801904,801984,802164,
802392,802468,802512,802588,802664,802844,
803072,803148,803196,803268,803344,803528,
803760,803840,803884,803960,804036,804216,
804448,804528,804572,804648,804720,804904,
805144,805220,805268,805340,805416,805600,
805856,805932,805980,806056,806128,806312,
806568,806644,806688,806768,806840,807024,
807264,807344,807392,807468,807544,807724,
807964,808040,808088,808168,808240,808424,
808672,808748,808796,808868,808944,809128,
809368,809448,809492,809572,809644,809832,
810068,810144,810192,810268,810344,810524,
810756,810836,810884,810956,811032,811216,
811444,811524,811568,811648,811720,811904,
812132,812216,812260,812336,812412,812596,
812824,812900,812944,813020,813100,813280,
813500,813576,813620,813696,813772,813956,
814172,814252,814296,814372,814448,814632,
814848,814932,814976,815052,815128,815312,
815544,815620,815668,815744,815820,816000,
816236,816312,816360,816432,816508,816692,
816916,817000,817044,817120,817196,817376,
817604,817688,817732,817812,817884,818068,
818292,818372,818420,818496,818572,818756,
818968,819052,819096,819176,819252,819432,
819648,819728,819776,819852,819928,820108,
820336,820412,820456,820532,820612,820792,
821028,821104,821152,821224,821300,821480,
821724,821804,821848,821924,822000,822184,
822428,822500,822548,822624,822704,822880,
823132,823208,823252,823332,823404,823588,
823840,823916,823964,824040,824112,824300,
824544,824624,824672,824748,824824,825004,
825244,825328,825372,825452,825524,825708,
825952,826032,826080,826152,826228,826412,
826676,826748,826796,826868,826948,827132,
827384,827460,827508,827584,827660,827844,
828088,828168,828212,828292,828364,828552,
828796,828872,828920,828992,829068,829252,
829488,829568,829616,829696,829764,829952,
830200,830276,830320,830396,830468,830652,
830884,830968,831012,831092,831164,831348,
831584,831660,831708,831780,831860,832044,
832280,832360,832404,832484,832556,832740,
832980,833060,833104,833180,833256,833440,
833684,833756,833804,833880,833956,834140,
834372,834452,834496,834572,834648,834832,
835060,835140,835188,835264,835340,835524,
835760,835840,835888,835964,836040,836224,
836460,836540,836584,836660,836740,836920,
837156,837232,837276,837352,837428,837612,
837844,837920,837968,838044,838116,838304,
838564,838636,838684,838760,838832,839020,
839280,839356,839400,839476,839552,839736,
839984,840056,840104,840176,840256,840436,
840696,840768,840816,840892,840964,841152,
841420,841496,841544,841620,841696,841880,
842140,842216,842260,842340,842416,842596,
842844,842916,842964,843040,843112,843300,
843544,843620,843668,843740,843820,844000,
844252,844332,844376,844452,844524,844712,
844964,845044,845088,845168,845240,845428,
845676,845752,845800,845872,845948,846136,
846388,846464,846512,846584,846664,846844,
847092,847172,847220,847296,847364,847556,
847796,847872,847916,847992,848068,848252,
848488,848568,848612,848688,848760,848948,
849188,849264,849312,849384,849464,849644,
849888,849968,850012,850092,850160,850352,
850600,850680,850724,850804,850876,851060,
851308,851384,851432,851504,851584,851764,
852012,852092,852140,852216,852292,852472,
852728,852812,852860,852936,853012,853196,
853448,853532,853576,853656,853728,853912,
854160,854236,854284,854360,854432,854620,
854856,854936,854980,855056,855132,855316,
855556,855636,855680,855756,855828,856016,
856244,856328,856372,856452,856528,856712,
856944,857020,857068,857140,857220,857400,
857640,857720,857764,857840,857916,858100,
858344,858420,858468,858540,858620,858800,
859044,859124,859168,859248,859320,859508,
859752,859828,859876,859948,860024,860208,
860448,860528,860572,860652,860724,860908,
861164,861240,861288,861364,861440,861624,
861888,861968,862012,862092,862164,862352,
862608,862688,862732,862812,862888,863068,
863328,863408,863452,863532,863608,863792,
864044,864124,864168,864248,864320,864508,
864764,864844,864888,864968,865040,865228,
865484,865556,865600,865680,865752,865940,
866188,866264,866312,866384,866464,866644,
866888,866960,867008,867084,867156,867344,
867588,867660,867708,867784,867864,868044,
868288,868368,868412,868492,868564,868752,
869000,869080,869128,869204,869280,869464,
869724,869804,869852,869928,870000,870188,
870464,870540,870588,870664,870740,870924,
871200,871276,871320,871396,871472,871656,
871928,872004,872052,872128,872204,872388,
872664,872740,872788,872864,872940,873124,
873404,873480,873524,873600,873676,873860,
874128,874208,874256,874332,874408,874592,
874852,874928,874972,875052,875128,875312,
875576,875652,875696,875772,875848,876032,
876308,876380,876428,876504,876584,876768,
877024,877100,877148,877220,877300,877484,
877732,877808,877852,877932,878004,878192,
878428,878504,878552,878624,878704,878884,
879120,879200,879248,879324,879400,879584,
879812,879896,879944,880020,880096,880280,
880524,880596,880644,880720,880796,880980,
881228,881300,881348,881420,881504,881684,
881940,882016,882068,882140,882220,882404,
882672,882748,882796,882872,882948,883132,
883400,883484,883528,883604,883680,883864,
884124,884200,884248,884324,884400,884584,
884844,884920,884964,885044,885120,885304,
885572,885652,885696,885772,885852,886032,
886300,886380,886424,886500,886580,886764,
887020,887096,887144,887220,887296,887480,
887736,887812,887860,887936,888016,888200,
888468,888540,888588,888664,888740,888924,
889176,889252,889300,889376,889452,889636,
889880,889952,890000,890072,890148,890336,
890572,890656,890700,890776,890852,891040,
891276,891348,891396,891468,891548,891732,
891960,892036,892080,892156,892232,892420,
892648,892720,892764,892840,892916,893104,
893332,893408,893456,893532,893608,893792,
894040,894116,894160,894236,894312,894500,
894748,894824,894872,894948,895024,895208,
895452,895532,895580,895656,895732,895916,
896160,896236,896284,896360,896432,896620,
896856,896936,896984,897060,897136,897320,
897556,897632,897680,897756,897832,898016,
898244,898324,898368,898444,898520,898708,
898928,899008,899056,899132,899212,899392,
899616,899696,899744,899820,899896,900080,
900292,900372,900420,900496,900572,900760,
900968,901052,901096,901172,901252,901436,
901644,901728,901776,901852,901928,902112,
902344,902416,902464,902540,902616,902800,
903036,903116,903164,903240,903316,903500,
903728,903812,903856,903932,904012,904192,
904416,904492,904540,904616,904692,904876,
905096,905176,905220,905296,905372,905560,
905788,905868,905912,905988,906064,906248,
906468,906544,906592,906668,906748,906928,
907152,907224,907268,907344,907424,907604,
907816,907892,907940,908016,908092,908276,
908484,908564,908612,908692,908764,908952,
909156,909236,909284,909364,909436,909624,
909832,909908,909956,910028,910108,910288,
910496,910572,910620,910696,910772,910960,
911168,911252,911300,911376,911448,911632,
911848,911932,911976,912056,912128,912312,
912528,912612,912656,912732,912812,912992,
913204,913280,913328,913404,913480,913664,
913884,913960,914004,914084,914156,914340,
914556,914636,914684,914764,914836,915020,
915236,915312,915360,915436,915512,915696,
915904,915984,916032,916108,916184,916368,
916584,916660,916708,916780,916860,917040,
917260,917340,917388,917464,917540,917724,
917940,918024,918072,918148,918224,918408,
918628,918704,918752,918828,918904,919088,
919300,919376,919424,919500,919576,919760,
919972,920052,920100,920176,920248,920432,
920656,920736,920784,920860,920936,921120,
921348,921424,921468,921544,921624,921804,
922028,922100,922148,922224,922304,922480,
922712,922788,922836,922908,922984,923168,
923396,923480,923524,923600,923672,923860,
924088,924172,924216,924296,924368,924552,
924784,924860,924908,924980,925060,925244,
925480,925556,925604,925680,925752,925936,
926180,926256,926304,926380,926456,926640,
926880,926960,927004,927084,927156,927344,
927576,927656,927700,927776,927852,928036,
928268,928340,928388,928464,928540,928720,
928952,929028,929076,929152,929228,929412,
929644,929720,929768,929844,929920,930104,
930336,930412,930460,930536,930612,930792,
931032,931108,931156,931228,931308,931488,
931724,931804,931852,931928,932004,932188,
932436,932512,932560,932636,932708,932892,
933136,933216,933268,933340,933420,933600,
933852,933932,933972,934052,934124,934312,
934560,934640,934684,934764,934836,935024,
935276,935348,935396,935472,935548,935736,
935988,936064,936112,936188,936264,936444,
936684,936760,936808,936888,936960,937144,
937372,937448,937496,937572,937648,937832,
938052,938136,938180,938256,938332,938516,
938748,938824,938872,938944,939024,939204,
939432,939504,939552,939628,939708,939884,
940116,940188,940236,940308,940388,940568,
940796,940880,940924,941000,941076,941256,
941508,941584,941632,941708,941784,941964,
942228,942300,942348,942424,942504,942684,
942948,943024,943072,943148,943228,943408,
943692,943764,943812,943888,943964,944148,
944440,944516,944564,944640,944716,944904,
945188,945260,945308,945384,945460,945648,
945928,946004,946052,946132,946208,946392,
946656,946732,946780,946856,946932,947116,
947384,947456,947508,947580,947660,947840,
948108,948180,948228,948304,948380,948564,
948824,948900,948948,949020,949100,949280,
949536,949616,949660,949736,949812,949996,
950248,950328,950372,950452,950524,950712,
950952,951032,951076,951152,951228,951412,
951640,951720,951764,951844,951920,952104,
952328,952408,952456,952532,952608,952792,
953012,953092,953140,953216,953292,953476,
953712,953784,953832,953908,953984,954168,
954388,954464,954512,954588,954668,954848,
955060,955136,955180,955260,955336,955516,
955712,955788,955836,955912,955988,956168,
956400,956476,956508,956584,956664,956832,
957048,957120,957164,957240,957324,957500,
957720,957792,957840,957916,957992,958172,
958376,958444,958492,958568,958648,958832,
959020,959092,959140,959212,959292,959476,
959660,959728,959780,959852,959932,960112,
960280,960352,960400,960476,960556,960736,
960908,960968,961020,961092,961172,961352,
961508,961580,961628,961700,961780,961960,
962116,962180,962232,962304,962384,962560,
962716,962776,962824,962896,962980,963156,
963296,963368,963416,963488,963572,963744,
963876,963948,964000,964072,964148,964324,
964460,964524,964576,964648,964728,964900,
965036,965100,965152,965220,965296,965472,
965604,965672,965720,965788,965864,966040,
966168,966236,966284,966356,966432,966608,
966740,966804,966848,966920,966996,967176,
967300,967368,967412,967480,967556,967732,
967864,967924,967968,968040,968116,968288,
968424,968484,968528,968600,968672,968844,
968956,969032,969080,969152,969228,969400,
969524,969588,969636,969704,969780,969952,
970064,970120,970184,970252,970332,970508,
970612,970676,970732,970796,970880,971048,
971148,971212,971272,971336,971420,971584,
971700,971760,971808,971876,971948,972124,
972232,972292,972344,972412,972488,972660,
972764,972832,972880,972948,973024,973192,
973304,973368,973416,973484,973560,973728,
973836,973904,973952,974020,974096,974264,
974392,974448,974496,974564,974640,974804,
974940,975004,975048,975112,975196,975360,
975492,975560,975600,975668,975744,975920,
976048,976108,976152,976220,976300,976472,
976592,976660,976708,976776,976852,977028,
977156,977220,977264,977332,977412,977588,
977708,977772,977820,977888,977968,978140,
978272,978328,978376,978444,978524,978696,
978824,978888,978936,979004,979084,979256,
979388,979452,979496,979564,979644,979812,
979944,980008,980052,980120,980208,980368,
980508,980572,980616,980684,980764,980936,
981068,981128,981172,981240,981320,981496,
981628,981688,981732,981800,981884,982052,
982184,982244,982288,982356,982440,982604,
982740,982804,982848,982916,982992,983164,
983288,983356,983400,983472,983548,983720,
983844,983904,983952,984020,984092,984268,
984384,984452,984500,984568,984648,984816,
984932,984996,985044,985112,985188,985360,
985476,985536,985588,985656,985728,985900,
986024,986080,986128,986196,986280,986440,
986556,986624,986672,986740,986816,986988,
987108,987172,987220,987284,987360,987532,
987660,987724,987772,987836,987916,988084,
988220,988280,988332,988400,988476,988648,
988792,988852,988900,988968,989044,989220,
989360,989424,989468,989540,989616,989792,
989932,990000,990044,990116,990192,990364,
990512,990572,990620,990692,990768,990944,
991084,991148,991192,991264,991344,991516,
991656,991724,991764,991836,991916,992084,
992228,992288,992336,992404,992484,992652,
992792,992852,992900,992968,993052,993216,
993356,993416,993464,993532,993612,993776,
993912,993968,994016,994084,994164,994328,
994468,994520,994568,994636,994712,994880,
994996,995060,995112,995180,995256,995428,
995552,995608,995656,995724,995804,995968,
"","",996196,996264,996340,996508,
996620,996672,996724,996792,996868,997032,
997140,997204,997252,997320,997396,997560,
997668,997732,997780,997848,997920,998088,
998188,998252,998304,998372,998448,998608,
998720,998792,998836,998908,998980,999148,
999264,999324,999372,999440,999516,999680,
999796,999864,999912,999976,1.00006e+06,1.00022e+06,
1.00035e+06,1.00041e+06,1.00046e+06,1.00052e+06,1.0006e+06,1.00076e+06,
1.0009e+06,1.00096e+06,1.001e+06,1.00107e+06,1.00114e+06,1.00131e+06,
1.00144e+06,1.0015e+06,1.00155e+06,1.00162e+06,1.00169e+06,1.00186e+06,
1.00198e+06,1.00205e+06,1.00209e+06,1.00216e+06,1.00224e+06,1.0024e+06,
1.00253e+06,1.00259e+06,1.00264e+06,1.0027e+06,1.00278e+06,1.00295e+06,
1.00307e+06,1.00313e+06,1.00318e+06,1.00324e+06,1.00332e+06,1.00348e+06,
1.00361e+06,1.00368e+06,1.00372e+06,1.00378e+06,1.00386e+06,1.00403e+06,
1.00415e+06,1.00421e+06,1.00426e+06,1.00432e+06,1.0044e+06,1.00456e+06,
1.00468e+06,1.00475e+06,1.0048e+06,1.00486e+06,1.00494e+06,1.0051e+06,
1.00523e+06,1.00529e+06,1.00533e+06,1.0054e+06,1.00548e+06,1.00564e+06,
1.00576e+06,1.00582e+06,1.00587e+06,1.00594e+06,1.00601e+06,1.00617e+06,
1.00629e+06,1.00636e+06,1.0064e+06,1.00647e+06,1.00654e+06,1.00671e+06,
1.00682e+06,1.00688e+06,1.00693e+06,1.007e+06,1.00707e+06,1.00724e+06,
1.00735e+06,1.00741e+06,1.00746e+06,1.00752e+06,1.0076e+06,1.00776e+06,
1.00788e+06,1.00793e+06,1.00798e+06,1.00805e+06,1.00812e+06,1.00829e+06,
1.0084e+06,1.00846e+06,1.00851e+06,1.00857e+06,1.00865e+06,1.00881e+06,
1.00892e+06,1.00898e+06,1.00902e+06,1.00909e+06,1.00917e+06,1.00933e+06,
1.00944e+06,1.0095e+06,1.00954e+06,1.00961e+06,1.00968e+06,1.00985e+06,
1.00996e+06,1.01001e+06,1.01006e+06,1.01013e+06,1.0102e+06,1.01037e+06,
1.01047e+06,1.01053e+06,1.01057e+06,1.01064e+06,1.01072e+06,1.01088e+06,
1.01099e+06,1.01104e+06,1.01109e+06,1.01116e+06,1.01123e+06,1.01139e+06,
1.0115e+06,1.01156e+06,1.0116e+06,1.01167e+06,1.01174e+06,1.0119e+06,
1.012e+06,1.01206e+06,1.01211e+06,1.01218e+06,1.01225e+06,1.01241e+06,
1.01251e+06,1.01257e+06,1.01262e+06,1.01268e+06,1.01276e+06,1.01292e+06,
1.01302e+06,1.01308e+06,1.01312e+06,1.01319e+06,1.01326e+06,1.01343e+06,
1.01353e+06,1.01358e+06,1.01363e+06,1.0137e+06,1.01378e+06,1.01394e+06,
1.01404e+06,1.0141e+06,1.01414e+06,1.01421e+06,1.01428e+06,1.01444e+06,
1.01455e+06,1.0146e+06,1.01465e+06,1.01471e+06,1.01479e+06,1.01495e+06,
1.01506e+06,1.01511e+06,1.01515e+06,1.01522e+06,1.0153e+06,1.01546e+06,
1.01556e+06,1.01562e+06,1.01566e+06,1.01573e+06,1.0158e+06,1.01597e+06,
1.01607e+06,1.01612e+06,1.01616e+06,1.01623e+06,1.01631e+06,1.01647e+06,
1.01658e+06,1.01662e+06,1.01667e+06,1.01674e+06,1.01682e+06,1.01698e+06,
1.01708e+06,1.01714e+06,1.01718e+06,1.01725e+06,1.01732e+06,1.01749e+06,
1.01758e+06,1.01764e+06,1.01768e+06,1.01775e+06,1.01782e+06,1.01799e+06,
1.01808e+06,1.01814e+06,1.01819e+06,1.01825e+06,1.01833e+06,1.01849e+06,
1.01859e+06,1.01865e+06,1.01869e+06,1.01876e+06,1.01883e+06,1.019e+06,
1.01909e+06,1.01915e+06,1.01919e+06,1.01926e+06,1.01933e+06,1.0195e+06,
1.01959e+06,1.01965e+06,1.0197e+06,1.01976e+06,1.01984e+06,1.02e+06,
1.0201e+06,1.02016e+06,1.0202e+06,1.02026e+06,1.02034e+06,1.0205e+06,
1.0206e+06,1.02066e+06,1.0207e+06,1.02077e+06,1.02085e+06,1.02101e+06,
1.02111e+06,1.02117e+06,1.02121e+06,1.02128e+06,1.02135e+06,1.02151e+06,
1.02161e+06,1.02167e+06,1.02171e+06,1.02178e+06,1.02186e+06,1.02201e+06,
1.02211e+06,1.02217e+06,1.02222e+06,1.02228e+06,1.02236e+06,1.02252e+06,
1.02262e+06,1.02268e+06,1.02272e+06,1.02279e+06,1.02286e+06,1.02302e+06,
1.02312e+06,1.02318e+06,1.02323e+06,1.02329e+06,1.02337e+06,1.02353e+06,
1.02363e+06,1.02369e+06,1.02373e+06,1.0238e+06,1.02387e+06,1.02404e+06,
1.02414e+06,1.02419e+06,1.02423e+06,1.0243e+06,1.02438e+06,1.02454e+06,
1.02464e+06,1.0247e+06,1.02474e+06,1.02481e+06,1.02488e+06,1.02504e+06,
1.02515e+06,1.0252e+06,1.02524e+06,1.02531e+06,1.02539e+06,1.02555e+06,
1.02565e+06,1.02571e+06,1.02575e+06,1.02582e+06,1.02589e+06,1.02605e+06,
1.02616e+06,1.02621e+06,1.02626e+06,1.02632e+06,1.0264e+06,1.02656e+06,
1.02666e+06,1.02672e+06,1.02676e+06,1.02683e+06,1.0269e+06,1.02707e+06,
1.02717e+06,1.02722e+06,1.02727e+06,1.02734e+06,1.02741e+06,1.02757e+06,
1.02767e+06,1.02773e+06,1.02777e+06,1.02784e+06,1.02791e+06,1.02807e+06,
1.02817e+06,1.02822e+06,1.02827e+06,1.02834e+06,1.02841e+06,1.02857e+06,
1.02867e+06,1.02873e+06,1.02877e+06,1.02884e+06,1.02891e+06,1.02907e+06,
1.02916e+06,1.02922e+06,1.02927e+06,1.02934e+06,1.02941e+06,1.02957e+06,
1.02966e+06,1.02971e+06,1.02976e+06,1.02982e+06,1.0299e+06,1.03006e+06,
1.03015e+06,1.03022e+06,1.03026e+06,1.03032e+06,1.0304e+06,1.03055e+06,
1.03066e+06,1.03072e+06,1.03076e+06,1.03083e+06,1.0309e+06,1.03106e+06,
1.03116e+06,1.03122e+06,1.03127e+06,1.03133e+06,1.0314e+06,1.03156e+06,
1.03168e+06,1.03174e+06,1.03179e+06,1.03186e+06,1.03193e+06,1.03209e+06,
1.03223e+06,1.03229e+06,1.03233e+06,1.0324e+06,1.03247e+06,1.03263e+06,
1.03276e+06,1.03282e+06,1.03286e+06,1.03293e+06,1.033e+06,1.03316e+06,
1.03331e+06,1.03336e+06,1.0334e+06,1.03347e+06,1.03354e+06,1.03371e+06,
1.03384e+06,1.0339e+06,1.03395e+06,1.03401e+06,1.03409e+06,1.03424e+06,
1.03439e+06,1.03445e+06,1.03449e+06,1.03456e+06,1.03463e+06,1.03479e+06,
1.03492e+06,1.03498e+06,1.03502e+06,1.03509e+06,1.03517e+06,1.03532e+06,
1.03546e+06,1.03552e+06,1.03556e+06,1.03562e+06,1.0357e+06,1.03586e+06,
1.03599e+06,1.03605e+06,1.03609e+06,1.03616e+06,1.03623e+06,1.03639e+06,
1.03652e+06,1.03658e+06,1.03662e+06,1.03668e+06,1.03676e+06,1.03692e+06,
1.03704e+06,1.0371e+06,1.03714e+06,1.03721e+06,1.03728e+06,1.03744e+06,
1.03756e+06,1.03762e+06,1.03766e+06,1.03773e+06,1.03781e+06,1.03796e+06,
1.03808e+06,1.03814e+06,1.03818e+06,1.03825e+06,1.03833e+06,1.03848e+06,
1.0386e+06,1.03865e+06,1.0387e+06,1.03876e+06,1.03884e+06,1.039e+06,
1.03911e+06,1.03917e+06,1.03921e+06,1.03928e+06,1.03935e+06,1.03951e+06,
1.03963e+06,1.03966e+06,1.03972e+06,1.03978e+06,1.03986e+06,1.04002e+06,
1.04012e+06,1.04018e+06,1.04022e+06,1.04029e+06,1.04037e+06,1.04052e+06,
1.04063e+06,1.04068e+06,1.04073e+06,1.0408e+06,1.04087e+06,1.04102e+06,
1.04114e+06,1.04118e+06,1.04123e+06,1.0413e+06,1.04137e+06,1.04152e+06,
1.04166e+06,1.04168e+06,1.04172e+06,1.04179e+06,1.04186e+06,1.04202e+06,
1.04212e+06,1.04218e+06,1.04222e+06,1.04228e+06,1.04236e+06,1.04251e+06,
1.04261e+06,1.04267e+06,1.04272e+06,1.04278e+06,1.04286e+06,1.04301e+06,
1.04309e+06,1.04317e+06,1.04321e+06,1.04328e+06,1.04335e+06,1.0435e+06,
1.04363e+06,1.04369e+06,1.04373e+06,1.0438e+06,1.04387e+06,1.04402e+06,
1.04416e+06,1.04422e+06,1.04426e+06,1.04432e+06,1.0444e+06,1.04455e+06,
1.04467e+06,1.04473e+06,1.04479e+06,1.04485e+06,1.04493e+06,1.04508e+06,
1.0452e+06,1.04528e+06,1.04534e+06,1.0454e+06,1.04548e+06,1.04564e+06,
1.04581e+06,1.04587e+06,1.04593e+06,1.04601e+06,1.04608e+06,1.04624e+06,
"","",1.04655e+06,1.04662e+06,1.0467e+06,1.04685e+06,
1.04712e+06,1.04719e+06,1.04723e+06,1.0473e+06,1.04737e+06,1.04754e+06,
1.04787e+06,1.04794e+06,1.04798e+06,1.04806e+06,1.04813e+06,1.0483e+06,
1.04859e+06,1.04866e+06,1.0487e+06,1.04878e+06,1.04885e+06,1.04902e+06,
1.04929e+06,1.04935e+06,1.0494e+06,1.04947e+06,1.04954e+06,1.04971e+06,
1.05005e+06,1.05012e+06,1.05016e+06,1.05024e+06,1.05031e+06,1.05048e+06,
1.0509e+06,1.05096e+06,1.051e+06,1.05108e+06,1.05115e+06,1.05132e+06,
1.0517e+06,1.05177e+06,1.05182e+06,1.05189e+06,1.05196e+06,1.05213e+06,
1.0525e+06,1.05257e+06,1.05261e+06,1.05269e+06,1.05276e+06,1.05293e+06,
1.05326e+06,1.05333e+06,1.05337e+06,1.05345e+06,1.05352e+06,1.05369e+06,
1.054e+06,1.05407e+06,1.05412e+06,1.05419e+06,1.05426e+06,1.05443e+06,
1.0547e+06,1.05477e+06,1.05482e+06,1.05489e+06,1.05496e+06,1.05513e+06,
1.05538e+06,1.05545e+06,1.0555e+06,1.05557e+06,1.05564e+06,1.05581e+06,
1.05606e+06,1.05613e+06,1.05618e+06,1.05625e+06,1.05632e+06,1.05649e+06,
1.05674e+06,1.05682e+06,1.05686e+06,1.05693e+06,1.057e+06,1.05717e+06,
1.05744e+06,1.05751e+06,1.05756e+06,1.05764e+06,1.0577e+06,1.05787e+06,
1.05816e+06,1.05822e+06,1.05827e+06,1.05835e+06,1.05841e+06,1.05858e+06,
1.05887e+06,1.05894e+06,1.05899e+06,1.05906e+06,1.05913e+06,1.0593e+06,
1.05959e+06,1.05966e+06,1.0597e+06,1.05978e+06,1.05985e+06,1.06002e+06,
1.06032e+06,1.06038e+06,1.06043e+06,1.0605e+06,1.06057e+06,1.06074e+06,
1.06103e+06,1.0611e+06,1.06114e+06,1.06122e+06,1.06128e+06,1.06146e+06,
1.06173e+06,1.0618e+06,1.06184e+06,1.06192e+06,1.06198e+06,1.06216e+06,
1.06244e+06,1.06252e+06,1.06256e+06,1.06263e+06,1.0627e+06,1.06287e+06,
1.06317e+06,1.06324e+06,1.06328e+06,1.06336e+06,1.06342e+06,1.06359e+06,
1.06389e+06,1.06396e+06,1.064e+06,1.06408e+06,1.06414e+06,1.06432e+06,
1.06461e+06,1.06468e+06,1.06472e+06,1.0648e+06,1.06486e+06,1.06503e+06,
1.06532e+06,1.06538e+06,1.06543e+06,1.0655e+06,1.06557e+06,1.06574e+06,
1.06602e+06,1.06609e+06,1.06614e+06,1.06621e+06,1.06628e+06,1.06644e+06,
1.06673e+06,1.0668e+06,1.06684e+06,1.06692e+06,1.06698e+06,1.06716e+06,
1.06744e+06,1.0675e+06,1.06754e+06,1.06762e+06,1.06768e+06,1.06786e+06,
1.06812e+06,1.06819e+06,1.06823e+06,1.0683e+06,1.06837e+06,1.06854e+06,
1.06879e+06,1.06886e+06,1.0689e+06,1.06897e+06,1.06904e+06,1.06921e+06,
1.06946e+06,1.06953e+06,1.06957e+06,1.06965e+06,1.06972e+06,1.06988e+06,
1.07012e+06,1.07019e+06,1.07024e+06,1.07031e+06,1.07038e+06,1.07055e+06,
1.07078e+06,1.07084e+06,1.07089e+06,1.07096e+06,1.07103e+06,1.0712e+06,
1.07141e+06,1.07148e+06,1.07152e+06,1.07159e+06,1.07166e+06,1.07183e+06,
1.07203e+06,1.0721e+06,1.07214e+06,1.07221e+06,1.07228e+06,1.07245e+06,
1.07265e+06,1.07272e+06,1.07276e+06,1.07283e+06,1.07291e+06,1.07307e+06,
1.07326e+06,1.07333e+06,1.07338e+06,1.07345e+06,1.07352e+06,1.07369e+06,
1.07388e+06,1.07394e+06,1.07399e+06,1.07406e+06,1.07414e+06,1.0743e+06,
1.07448e+06,1.07455e+06,1.0746e+06,1.07467e+06,1.07474e+06,1.0749e+06,
1.07508e+06,1.07516e+06,1.0752e+06,1.07528e+06,1.07534e+06,1.07551e+06,
1.0757e+06,1.07577e+06,1.07582e+06,1.07589e+06,1.07597e+06,1.07613e+06,
1.07634e+06,1.07642e+06,1.07646e+06,1.07654e+06,1.07661e+06,1.07677e+06,
1.07698e+06,1.07706e+06,1.0771e+06,1.07717e+06,1.07724e+06,1.07741e+06,
1.07762e+06,1.07769e+06,1.07774e+06,1.07781e+06,1.07788e+06,1.07805e+06,
1.07826e+06,1.07834e+06,1.07838e+06,1.07845e+06,1.07852e+06,1.07869e+06,
1.07891e+06,1.07898e+06,1.07903e+06,1.0791e+06,1.07917e+06,1.07934e+06,
1.07956e+06,1.07963e+06,1.07967e+06,1.07974e+06,1.07981e+06,1.07998e+06,
1.0802e+06,1.08026e+06,1.08031e+06,1.08038e+06,1.08045e+06,1.08062e+06,
1.08084e+06,1.0809e+06,1.08095e+06,1.08102e+06,1.08109e+06,1.08126e+06,
1.08147e+06,1.08154e+06,1.08159e+06,1.08166e+06,1.08173e+06,1.0819e+06,
1.0821e+06,1.08218e+06,1.08222e+06,1.08229e+06,1.08236e+06,1.08253e+06,
1.08274e+06,1.08281e+06,1.08286e+06,1.08293e+06,1.083e+06,1.08316e+06,
1.08336e+06,1.08344e+06,1.08348e+06,1.08355e+06,1.08362e+06,1.08379e+06,
1.08399e+06,1.08405e+06,1.0841e+06,1.08417e+06,1.08424e+06,1.08441e+06,
1.08461e+06,1.08468e+06,1.08473e+06,1.0848e+06,1.08487e+06,1.08504e+06,
1.08524e+06,1.08531e+06,1.08535e+06,1.08542e+06,1.0855e+06,1.08566e+06,
1.08586e+06,1.08593e+06,1.08598e+06,1.08605e+06,1.08612e+06,1.08628e+06,
1.08648e+06,1.08655e+06,1.08659e+06,1.08666e+06,1.08674e+06,1.0869e+06,
1.0871e+06,1.08717e+06,1.08722e+06,1.08729e+06,1.08736e+06,1.08752e+06,
1.08772e+06,1.08779e+06,1.08784e+06,1.08791e+06,1.08798e+06,1.08815e+06,
1.08836e+06,1.08842e+06,1.08847e+06,1.08854e+06,1.08861e+06,1.08878e+06,
1.08899e+06,1.08906e+06,1.08911e+06,1.08918e+06,1.08924e+06,1.08942e+06,
1.08962e+06,1.08969e+06,1.08974e+06,1.08981e+06,1.08988e+06,1.09005e+06,
1.09026e+06,1.09033e+06,1.09037e+06,1.09044e+06,1.09051e+06,1.09068e+06,
1.09088e+06,1.09096e+06,1.091e+06,1.09107e+06,1.09114e+06,1.09131e+06,
1.09152e+06,1.09158e+06,1.09163e+06,1.0917e+06,1.09178e+06,1.09194e+06,
1.09214e+06,1.09221e+06,1.09226e+06,1.09233e+06,1.0924e+06,1.09257e+06,
1.09277e+06,1.09284e+06,1.09288e+06,1.09295e+06,1.09302e+06,1.09319e+06,
1.09338e+06,1.09345e+06,1.0935e+06,1.09357e+06,1.09364e+06,1.0938e+06,
1.094e+06,1.09407e+06,1.09411e+06,1.09418e+06,1.09426e+06,1.09442e+06,
1.09462e+06,1.09468e+06,1.09473e+06,1.0948e+06,1.09487e+06,1.09504e+06,
1.09524e+06,1.09531e+06,1.09535e+06,1.09542e+06,1.0955e+06,1.09566e+06,
1.09586e+06,1.09592e+06,1.09597e+06,1.09604e+06,1.09612e+06,1.09628e+06,
1.09648e+06,1.09655e+06,1.09659e+06,1.09666e+06,1.09674e+06,1.0969e+06,
1.0971e+06,1.09717e+06,1.09722e+06,1.09729e+06,1.09736e+06,1.09752e+06,
1.09773e+06,1.0978e+06,1.09784e+06,1.09792e+06,1.09798e+06,1.09815e+06,
1.09836e+06,1.09843e+06,1.09847e+06,1.09854e+06,1.09861e+06,1.09878e+06,
1.09897e+06,1.09904e+06,1.09909e+06,1.09916e+06,1.09923e+06,1.0994e+06,
1.09958e+06,1.09964e+06,1.09969e+06,1.09976e+06,1.09984e+06,1.1e+06,
1.10018e+06,1.10024e+06,1.10029e+06,1.10036e+06,1.10043e+06,1.1006e+06,
1.10077e+06,1.10084e+06,1.10089e+06,1.10096e+06,1.10103e+06,1.1012e+06,
1.10138e+06,1.10145e+06,1.10149e+06,1.10156e+06,1.10164e+06,1.1018e+06,
1.10199e+06,1.10205e+06,1.1021e+06,1.10217e+06,1.10224e+06,1.10241e+06,
1.1026e+06,1.10266e+06,1.10271e+06,1.10278e+06,1.10286e+06,1.10302e+06,
1.1032e+06,1.10327e+06,1.10332e+06,1.10339e+06,1.10346e+06,1.10363e+06,
1.10382e+06,1.10388e+06,1.10393e+06,1.104e+06,1.10408e+06,1.10424e+06,
1.10444e+06,1.10451e+06,1.10455e+06,1.10462e+06,1.1047e+06,1.10486e+06,
1.10506e+06,1.10513e+06,1.10517e+06,1.10524e+06,1.10532e+06,1.10548e+06,
1.10567e+06,1.10574e+06,1.10578e+06,1.10586e+06,1.10593e+06,1.10609e+06,
1.10628e+06,1.10635e+06,1.1064e+06,1.10647e+06,1.10654e+06,1.10671e+06,
1.1069e+06,1.10696e+06,1.10701e+06,1.10708e+06,1.10716e+06,1.10732e+06,
1.10751e+06,1.10758e+06,1.10763e+06,1.1077e+06,1.10777e+06,1.10794e+06,
1.10814e+06,1.1082e+06,1.10825e+06,1.10832e+06,1.10839e+06,1.10856e+06,
1.10876e+06,1.10882e+06,1.10887e+06,1.10894e+06,1.10901e+06,1.10918e+06,
1.10938e+06,1.10944e+06,1.10949e+06,1.10956e+06,1.10963e+06,1.1098e+06,
1.10998e+06,1.11005e+06,1.1101e+06,1.11017e+06,1.11024e+06,1.11041e+06,
1.11058e+06,1.11065e+06,1.1107e+06,1.11077e+06,1.11085e+06,1.11101e+06,
1.11117e+06,1.11124e+06,1.11128e+06,1.11136e+06,1.11143e+06,1.1116e+06,
1.11176e+06,1.11182e+06,1.11187e+06,1.11194e+06,1.11201e+06,1.11218e+06,
1.11232e+06,1.11239e+06,1.11244e+06,1.11251e+06,1.11258e+06,1.11275e+06,
1.1129e+06,1.11296e+06,1.11301e+06,1.11308e+06,1.11316e+06,1.11332e+06,
1.11347e+06,1.11354e+06,1.11358e+06,1.11366e+06,1.11373e+06,1.11389e+06,
1.11404e+06,1.11411e+06,1.11416e+06,1.11423e+06,1.1143e+06,1.11447e+06,
1.11462e+06,1.11469e+06,1.11474e+06,1.11481e+06,1.11488e+06,1.11505e+06,
1.1152e+06,1.11528e+06,1.11532e+06,1.11539e+06,1.11546e+06,1.11563e+06,
1.11578e+06,1.11585e+06,1.1159e+06,1.11597e+06,1.11604e+06,1.11621e+06,
1.11636e+06,1.11642e+06,1.11648e+06,1.11655e+06,1.11662e+06,1.11678e+06,
1.11694e+06,1.11701e+06,1.11706e+06,1.11713e+06,1.1172e+06,1.11737e+06,
1.11752e+06,1.1176e+06,1.11764e+06,1.11772e+06,1.11779e+06,1.11796e+06,
1.11812e+06,1.11819e+06,1.11824e+06,1.11832e+06,1.11839e+06,1.11856e+06,
1.11872e+06,1.1188e+06,1.11885e+06,1.11892e+06,1.11899e+06,1.11916e+06,
1.11933e+06,1.1194e+06,1.11945e+06,1.11952e+06,1.1196e+06,1.11976e+06,
1.11994e+06,1.12e+06,1.12005e+06,1.12012e+06,1.1202e+06,1.12036e+06,
1.12052e+06,1.12059e+06,1.12064e+06,1.12072e+06,1.12079e+06,1.12096e+06,
1.12112e+06,1.12118e+06,1.12123e+06,1.1213e+06,1.12138e+06,1.12154e+06,
1.12171e+06,1.12178e+06,1.12182e+06,1.12189e+06,1.12197e+06,1.12213e+06,
1.12229e+06,1.12236e+06,1.12241e+06,1.12248e+06,1.12256e+06,1.12272e+06,
1.12288e+06,1.12295e+06,1.123e+06,1.12307e+06,1.12314e+06,1.12331e+06,
1.12348e+06,1.12355e+06,1.1236e+06,1.12366e+06,1.12374e+06,1.1239e+06,
1.12407e+06,1.12413e+06,1.12418e+06,1.12425e+06,1.12433e+06,1.12449e+06,
1.12466e+06,1.12472e+06,1.12477e+06,1.12484e+06,1.12492e+06,1.12508e+06,
1.12524e+06,1.12531e+06,1.12536e+06,1.12543e+06,1.12551e+06,1.12567e+06,
1.12583e+06,1.1259e+06,1.12595e+06,1.12602e+06,1.1261e+06,1.12626e+06,
1.12642e+06,1.12649e+06,1.12654e+06,1.12661e+06,1.12668e+06,1.12684e+06,
1.12702e+06,1.12708e+06,1.12713e+06,1.12721e+06,1.12728e+06,1.12744e+06,
1.1276e+06,1.12768e+06,1.12774e+06,1.12781e+06,1.12788e+06,1.12804e+06,
1.12822e+06,1.1283e+06,1.12834e+06,1.12841e+06,1.12848e+06,1.12865e+06,
1.12883e+06,1.1289e+06,1.12894e+06,1.12902e+06,1.12908e+06,1.12925e+06,
1.12944e+06,1.1295e+06,1.12955e+06,1.12962e+06,1.12971e+06,1.12986e+06,
1.13004e+06,1.1301e+06,1.13015e+06,1.13022e+06,1.13028e+06,1.13046e+06,
1.13063e+06,1.13069e+06,1.13074e+06,1.13081e+06,1.13088e+06,1.13104e+06,
1.13122e+06,1.13128e+06,1.13133e+06,1.1314e+06,1.13146e+06,1.13164e+06,
1.13178e+06,1.13186e+06,1.13191e+06,1.13198e+06,1.13205e+06,1.13222e+06,
1.13236e+06,1.13244e+06,1.13248e+06,1.13256e+06,1.13262e+06,1.13279e+06,
1.13295e+06,1.13301e+06,1.13306e+06,1.13313e+06,1.1332e+06,1.13337e+06,
1.13352e+06,1.13359e+06,1.13364e+06,1.13371e+06,1.13378e+06,1.13394e+06,
1.13411e+06,1.13415e+06,1.13421e+06,1.13428e+06,1.13435e+06,1.13451e+06,
1.13468e+06,1.13474e+06,1.13479e+06,1.13486e+06,1.13494e+06,1.1351e+06,
1.13528e+06,1.13534e+06,1.13538e+06,1.13545e+06,1.13552e+06,1.13568e+06,
1.13585e+06,1.13593e+06,1.13598e+06,1.13605e+06,1.13612e+06,1.13628e+06,
1.13645e+06,1.13652e+06,1.13657e+06,1.13664e+06,1.13672e+06,1.13688e+06,
1.13704e+06,1.13712e+06,1.13717e+06,1.13725e+06,1.13732e+06,1.13748e+06,
1.13766e+06,1.13773e+06,1.13778e+06,1.13785e+06,1.13792e+06,1.13809e+06,
1.13828e+06,1.13834e+06,1.13839e+06,1.13846e+06,1.13854e+06,1.1387e+06,
1.13888e+06,1.13896e+06,1.139e+06,1.13907e+06,1.13915e+06,1.13931e+06,
1.13949e+06,1.13956e+06,1.13961e+06,1.13968e+06,1.13976e+06,1.13992e+06,
1.1401e+06,1.14017e+06,1.14022e+06,1.14028e+06,1.14036e+06,1.14052e+06,
1.1407e+06,1.14077e+06,1.14082e+06,1.14089e+06,1.14098e+06,1.14113e+06,
1.14131e+06,1.14138e+06,1.14142e+06,1.14149e+06,1.14157e+06,1.14173e+06,
1.14192e+06,1.14198e+06,1.14202e+06,1.1421e+06,1.14218e+06,1.14234e+06,
1.14251e+06,1.14258e+06,1.14262e+06,1.14269e+06,1.14277e+06,1.14293e+06,
1.1431e+06,1.14316e+06,1.14321e+06,1.14328e+06,1.14335e+06,1.14352e+06,
1.14368e+06,1.14374e+06,1.14379e+06,1.14386e+06,1.14394e+06,1.14411e+06,
1.14426e+06,1.14432e+06,1.14437e+06,1.14444e+06,1.14451e+06,1.14468e+06,
1.14482e+06,1.14489e+06,1.14494e+06,1.14501e+06,1.14508e+06,1.14524e+06,
1.1454e+06,1.14546e+06,1.1455e+06,1.14557e+06,1.14565e+06,1.14581e+06,
1.14595e+06,1.14602e+06,1.14607e+06,1.14614e+06,1.14621e+06,1.14638e+06,
1.14652e+06,1.14658e+06,1.14663e+06,1.1467e+06,1.14678e+06,1.14694e+06,
1.14708e+06,1.14715e+06,1.1472e+06,1.14727e+06,1.14734e+06,1.1475e+06,
1.14766e+06,1.14772e+06,1.14777e+06,1.14784e+06,1.14791e+06,1.14808e+06,
1.14822e+06,1.14829e+06,1.14834e+06,1.14841e+06,1.14848e+06,1.14864e+06,
1.14881e+06,1.14887e+06,1.14892e+06,1.14899e+06,1.14907e+06,1.14923e+06,
1.14939e+06,1.14946e+06,1.1495e+06,1.14957e+06,1.14964e+06,1.14981e+06,
1.14998e+06,1.15004e+06,1.15008e+06,1.15016e+06,1.15022e+06,1.15039e+06,
1.15057e+06,1.15064e+06,1.15068e+06,1.15075e+06,1.15083e+06,1.15099e+06,
1.15116e+06,1.15122e+06,1.15127e+06,1.15134e+06,1.15142e+06,1.15158e+06,
1.15175e+06,1.15181e+06,1.15186e+06,1.15193e+06,1.152e+06,1.15217e+06,
1.15233e+06,1.1524e+06,1.15244e+06,1.15251e+06,1.15258e+06,1.15275e+06,
1.15291e+06,1.15298e+06,1.15302e+06,1.1531e+06,1.15317e+06,1.15334e+06,
1.1535e+06,1.15356e+06,1.1536e+06,1.15368e+06,1.15375e+06,1.15392e+06,
1.15407e+06,1.15414e+06,1.15418e+06,1.15425e+06,1.15433e+06,1.15449e+06,
1.15465e+06,1.15471e+06,1.15476e+06,1.15483e+06,1.1549e+06,1.15507e+06,
1.15522e+06,1.15529e+06,1.15533e+06,1.1554e+06,1.15547e+06,1.15564e+06,
1.1558e+06,1.15586e+06,1.15591e+06,1.15598e+06,1.15605e+06,1.15622e+06,
1.15638e+06,1.15644e+06,1.15649e+06,1.15656e+06,1.15664e+06,1.1568e+06,
1.15697e+06,1.15703e+06,1.15708e+06,1.15714e+06,1.15722e+06,1.15738e+06,
1.15755e+06,1.15762e+06,1.15767e+06,1.15774e+06,1.15781e+06,1.15798e+06,
1.15816e+06,1.15822e+06,1.15826e+06,1.15834e+06,1.15841e+06,1.15858e+06,
1.15875e+06,1.15882e+06,1.15886e+06,1.15894e+06,1.15901e+06,1.15919e+06,
1.15934e+06,1.15941e+06,1.15946e+06,1.15953e+06,1.1596e+06,1.15977e+06,
1.15993e+06,1.16e+06,1.16004e+06,1.16012e+06,1.16019e+06,1.16036e+06,
1.16052e+06,1.16059e+06,1.16063e+06,1.1607e+06,1.16078e+06,1.16094e+06,
1.16111e+06,1.16117e+06,1.16122e+06,1.16128e+06,1.16136e+06,1.16152e+06,
1.16169e+06,1.16175e+06,1.1618e+06,1.16187e+06,1.16194e+06,1.1621e+06,
1.16225e+06,1.16232e+06,1.16237e+06,1.16244e+06,1.16251e+06,1.16268e+06,
1.16283e+06,1.1629e+06,1.16294e+06,1.16301e+06,1.16308e+06,1.16324e+06,
1.16339e+06,1.16345e+06,1.1635e+06,1.16357e+06,1.16364e+06,1.16381e+06,
1.16395e+06,1.16401e+06,1.16406e+06,1.16413e+06,1.1642e+06,1.16437e+06,
1.16451e+06,1.16457e+06,1.16462e+06,1.16468e+06,1.16476e+06,1.16492e+06,
1.16506e+06,1.16512e+06,1.16516e+06,1.16523e+06,1.16531e+06,1.16547e+06,
1.1656e+06,1.16566e+06,1.16571e+06,1.16578e+06,1.16586e+06,1.16602e+06,
1.16615e+06,1.16621e+06,1.16626e+06,1.16633e+06,1.1664e+06,1.16656e+06,
1.1667e+06,1.16676e+06,1.16681e+06,1.16688e+06,1.16695e+06,1.16711e+06,
1.16724e+06,1.1673e+06,1.16735e+06,1.16742e+06,1.1675e+06,1.16766e+06,
1.16779e+06,1.16785e+06,1.1679e+06,1.16796e+06,1.16804e+06,1.1682e+06,
1.16833e+06,1.1684e+06,1.16844e+06,1.16851e+06,1.16858e+06,1.16875e+06,
1.16888e+06,1.16894e+06,1.16899e+06,1.16906e+06,1.16913e+06,1.16929e+06,
1.16942e+06,1.16949e+06,1.16953e+06,1.1696e+06,1.16968e+06,1.16984e+06,
1.16996e+06,1.17003e+06,1.17008e+06,1.17015e+06,1.17022e+06,1.17038e+06,
1.17051e+06,1.17058e+06,1.17062e+06,1.17069e+06,1.17076e+06,1.17092e+06,
1.17106e+06,1.17112e+06,1.17116e+06,1.17123e+06,1.17131e+06,1.17147e+06,
1.17159e+06,1.17166e+06,1.17171e+06,1.17178e+06,1.17185e+06,1.17201e+06,
1.17215e+06,1.1722e+06,1.17225e+06,1.17232e+06,1.17239e+06,1.17255e+06,
1.17268e+06,1.17274e+06,1.17279e+06,1.17286e+06,1.17293e+06,1.17309e+06,
1.17323e+06,1.17328e+06,1.17333e+06,1.1734e+06,1.17347e+06,1.17363e+06,
1.17375e+06,1.17382e+06,1.17386e+06,1.17393e+06,1.174e+06,1.17416e+06,
1.17429e+06,1.17435e+06,1.17439e+06,1.17446e+06,1.17454e+06,1.17469e+06,
1.17482e+06,1.17488e+06,1.17492e+06,1.17499e+06,1.17507e+06,1.17523e+06,
1.17535e+06,1.17541e+06,1.17546e+06,1.17553e+06,1.1756e+06,1.17576e+06,
1.17587e+06,1.17593e+06,1.17598e+06,1.17605e+06,1.17612e+06,1.17628e+06,
1.17642e+06,1.17647e+06,1.17651e+06,1.17658e+06,1.17666e+06,1.17682e+06,
1.17692e+06,1.17698e+06,1.17704e+06,1.17711e+06,1.17718e+06,1.17734e+06,
1.17746e+06,1.17752e+06,1.17756e+06,1.17763e+06,1.1777e+06,1.17786e+06,
1.17798e+06,1.17804e+06,1.17809e+06,1.17816e+06,1.17823e+06,1.17839e+06,
1.1785e+06,1.17856e+06,1.17861e+06,1.17868e+06,1.17875e+06,1.17891e+06,
1.17902e+06,1.17908e+06,1.17913e+06,1.1792e+06,1.17927e+06,1.17943e+06,
1.17955e+06,1.1796e+06,1.17965e+06,1.17972e+06,1.17979e+06,1.17995e+06,
1.18006e+06,1.18013e+06,1.18017e+06,1.18024e+06,1.18031e+06,1.18048e+06,
1.18058e+06,1.18064e+06,1.18069e+06,1.18076e+06,1.18083e+06,1.181e+06,
1.1811e+06,1.18116e+06,1.18121e+06,1.18127e+06,1.18134e+06,1.18151e+06,
1.18162e+06,1.18168e+06,1.18172e+06,1.18179e+06,1.18186e+06,1.18203e+06,
1.18213e+06,1.1822e+06,1.18224e+06,1.1823e+06,1.18238e+06,1.18254e+06,
1.18264e+06,1.1827e+06,1.18275e+06,1.18282e+06,1.18289e+06,1.18305e+06,
1.18316e+06,1.18321e+06,1.18326e+06,1.18332e+06,1.1834e+06,1.18356e+06,
1.18366e+06,1.18372e+06,1.18377e+06,1.18384e+06,1.1839e+06,1.18407e+06,
"","",1.18428e+06,1.18435e+06,1.18442e+06,1.18458e+06,
1.18468e+06,1.18475e+06,1.1848e+06,1.18486e+06,1.18493e+06,1.1851e+06,
1.1852e+06,1.18526e+06,1.18531e+06,1.18538e+06,1.18545e+06,1.18561e+06,
1.18572e+06,1.18578e+06,1.18582e+06,1.18589e+06,1.18596e+06,1.18613e+06,
1.18624e+06,1.1863e+06,1.18635e+06,1.18642e+06,1.18649e+06,1.18665e+06,
1.18679e+06,1.18684e+06,1.18688e+06,1.18695e+06,1.18702e+06,1.18719e+06,
1.18732e+06,1.18737e+06,1.18742e+06,1.18748e+06,1.18756e+06,1.18772e+06,
1.18786e+06,1.18792e+06,1.18796e+06,1.18803e+06,1.18811e+06,1.18827e+06,
1.18841e+06,1.18848e+06,1.18852e+06,1.18859e+06,1.18866e+06,1.18883e+06,
1.18896e+06,1.18902e+06,1.18907e+06,1.18913e+06,1.18921e+06,1.18937e+06,
1.18951e+06,1.18957e+06,1.18962e+06,1.18968e+06,1.18976e+06,1.18992e+06,
1.19005e+06,1.19012e+06,1.19016e+06,1.19023e+06,1.1903e+06,1.19046e+06,
1.1906e+06,1.19065e+06,1.1907e+06,1.19077e+06,1.19084e+06,1.191e+06,
1.19113e+06,1.19119e+06,1.19123e+06,1.1913e+06,1.19138e+06,1.19154e+06,
1.19165e+06,1.19172e+06,1.19176e+06,1.19183e+06,1.19191e+06,1.19207e+06,
1.19218e+06,1.19225e+06,1.19229e+06,1.19236e+06,1.19244e+06,1.1926e+06,
1.19272e+06,1.19278e+06,1.19282e+06,1.19289e+06,1.19297e+06,1.19313e+06,
1.19326e+06,1.19332e+06,1.19336e+06,1.19344e+06,1.19351e+06,1.19367e+06,
1.19379e+06,1.19386e+06,1.1939e+06,1.19397e+06,1.19404e+06,1.1942e+06,
1.19432e+06,1.19438e+06,1.19443e+06,1.1945e+06,1.19457e+06,1.19474e+06,
1.19486e+06,1.19492e+06,1.19496e+06,1.19503e+06,1.1951e+06,1.19526e+06,
1.19538e+06,1.19544e+06,1.19549e+06,1.19555e+06,1.19563e+06,1.19579e+06,
1.19591e+06,1.19598e+06,1.19602e+06,1.19608e+06,1.19616e+06,1.19632e+06,
1.19643e+06,1.1965e+06,1.19654e+06,1.19661e+06,1.19668e+06,1.19684e+06,
1.19694e+06,1.19702e+06,1.19706e+06,1.19712e+06,1.1972e+06,1.19736e+06,
1.19747e+06,1.19754e+06,1.19758e+06,1.19765e+06,1.19773e+06,1.19788e+06,
1.19799e+06,1.19806e+06,1.1981e+06,1.19816e+06,1.19824e+06,1.19839e+06,
1.19851e+06,1.19857e+06,1.19861e+06,1.19868e+06,1.19876e+06,1.19891e+06,
1.19902e+06,1.19908e+06,1.19912e+06,1.19919e+06,1.19927e+06,1.1994e+06,
1.19951e+06,1.19959e+06,1.19963e+06,1.1997e+06,1.19978e+06,1.19993e+06,
1.20002e+06,1.20008e+06,1.20014e+06,1.20021e+06,1.20027e+06,1.20044e+06,
1.20053e+06,1.2006e+06,1.20064e+06,1.20071e+06,1.20078e+06,1.20094e+06,
1.20104e+06,1.2011e+06,1.20115e+06,1.20122e+06,1.20128e+06,1.20145e+06,
1.20154e+06,1.2016e+06,1.20165e+06,1.20172e+06,1.20178e+06,1.20195e+06,
1.20204e+06,1.20211e+06,1.20215e+06,1.20222e+06,1.20228e+06,1.20245e+06,
1.20255e+06,1.20261e+06,1.20265e+06,1.20272e+06,1.20279e+06,1.20295e+06,
1.20305e+06,1.20311e+06,1.20315e+06,1.20322e+06,1.20329e+06,1.20345e+06,
1.20354e+06,1.2036e+06,1.20365e+06,1.20372e+06,1.20379e+06,1.20395e+06,
1.20405e+06,1.20411e+06,1.20415e+06,1.20422e+06,1.20429e+06,1.20445e+06,
1.20455e+06,1.20461e+06,1.20465e+06,1.20472e+06,1.20479e+06,1.20495e+06,
1.20505e+06,1.2051e+06,1.20515e+06,1.20522e+06,1.20528e+06,1.20544e+06,
1.20555e+06,1.20561e+06,1.20565e+06,1.20572e+06,1.20579e+06,1.20594e+06,
1.20605e+06,1.20611e+06,1.20615e+06,1.20622e+06,1.20629e+06,1.20645e+06,
1.20655e+06,1.20661e+06,1.20665e+06,1.20672e+06,1.20679e+06,1.20695e+06,
1.20704e+06,1.2071e+06,1.20715e+06,1.20722e+06,1.20728e+06,1.20745e+06,
1.20754e+06,1.2076e+06,1.20765e+06,1.20772e+06,1.20779e+06,1.20795e+06,
1.20803e+06,1.2081e+06,1.20815e+06,1.20821e+06,1.20828e+06,1.20844e+06,
1.20852e+06,1.20859e+06,1.20864e+06,1.20871e+06,1.20877e+06,1.20894e+06,
1.20902e+06,1.20908e+06,1.20913e+06,1.2092e+06,1.20926e+06,1.20942e+06,
1.2095e+06,1.20958e+06,1.20962e+06,1.20969e+06,1.20976e+06,1.20992e+06,
1.20999e+06,1.21007e+06,1.21012e+06,1.21018e+06,1.21026e+06,1.21041e+06,
1.2105e+06,1.21057e+06,1.21061e+06,1.21068e+06,1.21075e+06,1.21091e+06,
1.21099e+06,1.21106e+06,1.21111e+06,1.21118e+06,1.21125e+06,1.2114e+06,
1.2115e+06,1.21157e+06,1.21161e+06,1.21167e+06,1.21174e+06,1.2119e+06,
1.21199e+06,1.21206e+06,1.21211e+06,1.21218e+06,1.21225e+06,1.2124e+06,
1.21251e+06,1.21258e+06,1.21262e+06,1.21269e+06,1.21276e+06,1.21292e+06,
1.21305e+06,1.21311e+06,1.21315e+06,1.21322e+06,1.21329e+06,1.21345e+06,
1.2136e+06,1.21366e+06,1.2137e+06,1.21377e+06,1.21384e+06,1.214e+06,
1.21416e+06,1.21422e+06,1.21426e+06,1.21433e+06,1.2144e+06,1.21456e+06,
1.21472e+06,1.21478e+06,1.21482e+06,1.21489e+06,1.21496e+06,1.21512e+06,
1.21528e+06,1.21535e+06,1.21539e+06,1.21546e+06,1.21552e+06,1.21569e+06,
1.21584e+06,1.2159e+06,1.21595e+06,1.21602e+06,1.21608e+06,1.21625e+06,
1.21637e+06,1.21644e+06,1.21648e+06,1.21655e+06,1.21663e+06,1.21678e+06,
1.21692e+06,1.21698e+06,1.21703e+06,1.2171e+06,1.21717e+06,1.21733e+06,
1.21745e+06,1.21752e+06,1.21756e+06,1.21763e+06,1.2177e+06,1.21786e+06,
1.21798e+06,1.21804e+06,1.21809e+06,1.21816e+06,1.21823e+06,1.21839e+06,
"","",1.21861e+06,1.21868e+06,1.21875e+06,1.21891e+06,
1.21903e+06,1.21909e+06,1.21914e+06,1.2192e+06,1.21928e+06,1.21943e+06,
1.21956e+06,1.21961e+06,1.21966e+06,1.21973e+06,1.2198e+06,1.21995e+06,
1.22007e+06,1.22014e+06,1.22018e+06,1.22025e+06,1.22032e+06,1.22047e+06,
1.22057e+06,1.22064e+06,1.2207e+06,1.22076e+06,1.22083e+06,1.22099e+06,
1.22109e+06,1.22117e+06,1.22122e+06,1.22128e+06,1.22135e+06,1.22151e+06,
1.22162e+06,1.22169e+06,1.22173e+06,1.2218e+06,1.22187e+06,1.22203e+06,
1.22215e+06,1.2222e+06,1.22225e+06,1.22232e+06,1.22238e+06,1.22254e+06,
1.22266e+06,1.22272e+06,1.22276e+06,1.22283e+06,1.2229e+06,1.22305e+06,
1.22318e+06,1.22323e+06,1.22328e+06,1.22335e+06,1.22341e+06,1.22357e+06,
1.22367e+06,1.22374e+06,1.22378e+06,1.22385e+06,1.22392e+06,1.22408e+06,
1.22419e+06,1.22425e+06,1.22429e+06,1.22436e+06,1.22442e+06,1.22458e+06,
1.22469e+06,1.22475e+06,1.22479e+06,1.22486e+06,1.22493e+06,1.22509e+06,
1.22519e+06,1.22525e+06,1.2253e+06,1.22536e+06,1.22543e+06,1.22559e+06,
1.22568e+06,1.22575e+06,1.2258e+06,1.22586e+06,1.22594e+06,1.22608e+06,
1.22619e+06,1.22624e+06,1.2263e+06,1.22636e+06,1.22643e+06,1.22658e+06,
1.22669e+06,1.22675e+06,1.22679e+06,1.22686e+06,1.22692e+06,1.22707e+06,
1.22722e+06,1.22725e+06,1.2273e+06,1.22736e+06,1.22743e+06,1.22758e+06,
1.2277e+06,1.22777e+06,1.2278e+06,1.22787e+06,1.22794e+06,1.2281e+06,
1.22824e+06,1.2283e+06,1.22834e+06,1.2284e+06,1.22848e+06,1.22863e+06,
1.22878e+06,1.22885e+06,1.22889e+06,1.22896e+06,1.22903e+06,1.22918e+06,
1.22932e+06,1.22939e+06,1.22943e+06,1.2295e+06,1.22956e+06,1.22973e+06,
1.22987e+06,1.22994e+06,1.22998e+06,1.23005e+06,1.23012e+06,1.23028e+06,
1.2304e+06,1.23048e+06,1.23053e+06,1.2306e+06,1.23067e+06,1.23082e+06,
1.23097e+06,1.23103e+06,1.23107e+06,1.23114e+06,1.23121e+06,1.23137e+06,
1.2315e+06,1.23157e+06,1.23161e+06,1.23168e+06,1.23174e+06,1.23192e+06,
1.23204e+06,1.2321e+06,1.23214e+06,1.23221e+06,1.23228e+06,1.23244e+06,
1.23257e+06,1.23263e+06,1.23267e+06,1.23274e+06,1.2328e+06,1.23297e+06,
1.23309e+06,1.23315e+06,1.23319e+06,1.23326e+06,1.23332e+06,1.23348e+06,
1.2336e+06,1.23366e+06,1.23371e+06,1.23377e+06,1.23384e+06,1.234e+06,
1.23412e+06,1.23418e+06,1.23422e+06,1.23429e+06,1.23436e+06,1.23451e+06,
1.23462e+06,1.23468e+06,1.23473e+06,1.2348e+06,1.23486e+06,1.23502e+06,
1.23512e+06,1.23519e+06,1.23524e+06,1.2353e+06,1.23537e+06,1.23553e+06,
1.23564e+06,1.2357e+06,1.23574e+06,1.23581e+06,1.23587e+06,1.23603e+06,
1.23614e+06,1.23621e+06,1.23624e+06,1.23631e+06,1.23638e+06,1.23654e+06,
1.23665e+06,1.2367e+06,1.23675e+06,1.23682e+06,1.23688e+06,1.23704e+06,
1.23714e+06,1.2372e+06,1.23725e+06,1.23732e+06,1.23738e+06,1.23754e+06,
1.23764e+06,1.2377e+06,1.23774e+06,1.23781e+06,1.23788e+06,1.23804e+06,
1.23813e+06,1.2382e+06,1.23824e+06,1.23831e+06,1.23837e+06,1.23853e+06,
1.23863e+06,1.23869e+06,1.23873e+06,1.2388e+06,1.23887e+06,1.23902e+06,
1.23912e+06,1.23918e+06,1.23922e+06,1.23929e+06,1.23936e+06,1.23952e+06,
1.23962e+06,1.23968e+06,1.23972e+06,1.23978e+06,1.23985e+06,1.24001e+06,
1.24011e+06,1.24017e+06,1.24021e+06,1.24028e+06,1.24034e+06,1.2405e+06,
1.24059e+06,1.24066e+06,1.2407e+06,1.24076e+06,1.24082e+06,1.24099e+06,
1.24107e+06,1.24114e+06,1.24118e+06,1.24125e+06,1.24132e+06,1.24147e+06,
1.24156e+06,1.24162e+06,1.24167e+06,1.24173e+06,1.2418e+06,1.24195e+06,
1.24204e+06,1.2421e+06,1.24215e+06,1.24222e+06,1.24229e+06,1.24244e+06,
"","",1.24266e+06,1.24272e+06,1.2428e+06,1.24295e+06,
1.24306e+06,1.24312e+06,1.24317e+06,1.24324e+06,1.24331e+06,1.24346e+06,
1.24358e+06,1.24364e+06,1.24368e+06,1.24375e+06,1.24382e+06,1.24398e+06,
1.24411e+06,1.24417e+06,1.24421e+06,1.24428e+06,1.24435e+06,1.2445e+06,
1.24464e+06,1.2447e+06,1.24474e+06,1.24481e+06,1.24488e+06,1.24503e+06,
1.24517e+06,1.24524e+06,1.24528e+06,1.24534e+06,1.24542e+06,1.24556e+06,
1.24571e+06,1.24578e+06,1.24582e+06,1.24589e+06,1.24596e+06,1.24611e+06,
1.2463e+06,1.24636e+06,1.2464e+06,1.24648e+06,1.24654e+06,1.2467e+06,
1.2469e+06,1.24696e+06,1.247e+06,1.24707e+06,1.24714e+06,1.2473e+06,
1.2475e+06,1.24756e+06,1.2476e+06,1.24767e+06,1.24774e+06,1.2479e+06,
1.24809e+06,1.24816e+06,1.2482e+06,1.24826e+06,1.24834e+06,1.24849e+06,
1.24866e+06,1.24872e+06,1.24876e+06,1.24883e+06,1.2489e+06,1.24906e+06,
1.24922e+06,1.24928e+06,1.24933e+06,1.2494e+06,1.24947e+06,1.24962e+06,
1.24976e+06,1.24983e+06,1.24988e+06,1.24995e+06,1.25002e+06,1.25018e+06,
1.25032e+06,1.25039e+06,1.25044e+06,1.2505e+06,1.25058e+06,1.25073e+06,
1.25088e+06,1.25095e+06,1.25099e+06,1.25106e+06,1.25114e+06,1.2513e+06,
1.25146e+06,1.25152e+06,1.25157e+06,1.25164e+06,1.25171e+06,1.25186e+06,
1.25204e+06,1.2521e+06,1.25215e+06,1.25222e+06,1.25229e+06,1.25244e+06,
1.25262e+06,1.25269e+06,1.25273e+06,1.25281e+06,1.25288e+06,1.25303e+06,
1.25322e+06,1.25328e+06,1.25333e+06,1.2534e+06,1.25346e+06,1.25363e+06,
1.25381e+06,1.25388e+06,1.25392e+06,1.25399e+06,1.25407e+06,1.25422e+06,
1.25441e+06,1.25446e+06,1.2545e+06,1.25457e+06,1.25464e+06,1.2548e+06,
1.25497e+06,1.25503e+06,1.25507e+06,1.25514e+06,1.25521e+06,1.25537e+06,
1.25553e+06,1.25559e+06,1.25564e+06,1.25571e+06,1.25578e+06,1.25594e+06,
1.25609e+06,1.25616e+06,1.2562e+06,1.25627e+06,1.25634e+06,1.2565e+06,
1.25664e+06,1.25671e+06,1.25675e+06,1.25682e+06,1.25689e+06,1.25704e+06,
1.25719e+06,1.25726e+06,1.2573e+06,1.25737e+06,1.25744e+06,1.2576e+06,
1.25775e+06,1.25781e+06,1.25785e+06,1.25792e+06,1.25799e+06,1.25815e+06,
1.25829e+06,1.25835e+06,1.2584e+06,1.25846e+06,1.25853e+06,1.25869e+06,
1.25883e+06,1.25889e+06,1.25894e+06,1.259e+06,1.25908e+06,1.25923e+06,
1.25936e+06,1.25943e+06,1.25947e+06,1.25954e+06,1.25961e+06,1.25976e+06,
1.2599e+06,1.25996e+06,1.26e+06,1.26007e+06,1.26014e+06,1.2603e+06,
1.26043e+06,1.26049e+06,1.26053e+06,1.2606e+06,1.26066e+06,1.26082e+06,
1.26096e+06,1.26101e+06,1.26106e+06,1.26112e+06,1.26119e+06,1.26135e+06,
1.26147e+06,1.26154e+06,1.26158e+06,1.26164e+06,1.26171e+06,1.26187e+06,
1.262e+06,1.26205e+06,1.26209e+06,1.26216e+06,1.26223e+06,1.26238e+06,
1.26251e+06,1.26257e+06,1.26261e+06,1.26268e+06,1.26274e+06,1.2629e+06,
1.26303e+06,1.26308e+06,1.26312e+06,1.26319e+06,1.26326e+06,1.26342e+06,
1.26352e+06,1.26359e+06,1.26363e+06,1.2637e+06,1.26376e+06,1.26392e+06,
1.26403e+06,1.26409e+06,1.26414e+06,1.26421e+06,1.26427e+06,1.26443e+06,
1.26454e+06,1.2646e+06,1.26464e+06,1.26471e+06,1.26478e+06,1.26493e+06,
1.26502e+06,1.2651e+06,1.26514e+06,1.26521e+06,1.26528e+06,1.26543e+06,
1.26554e+06,1.2656e+06,1.26564e+06,1.26571e+06,1.26578e+06,1.26594e+06,
1.26604e+06,1.26611e+06,1.26615e+06,1.26622e+06,1.26629e+06,1.26644e+06,
1.26658e+06,1.26665e+06,1.26669e+06,1.26676e+06,1.26683e+06,1.26698e+06,
1.26714e+06,1.26719e+06,1.26723e+06,1.2673e+06,1.26738e+06,1.26753e+06,
1.26775e+06,1.26781e+06,1.26785e+06,1.26792e+06,1.268e+06,1.26815e+06,
1.26847e+06,1.26853e+06,1.26857e+06,1.26865e+06,1.26872e+06,1.26888e+06,
1.26917e+06,1.26924e+06,1.26928e+06,1.26936e+06,1.26942e+06,1.26959e+06,
1.26985e+06,1.26991e+06,1.26996e+06,1.27002e+06,1.2701e+06,1.27026e+06,
1.27049e+06,1.27056e+06,1.27061e+06,1.27068e+06,1.27075e+06,1.27092e+06,
1.27111e+06,1.27119e+06,1.27124e+06,1.27131e+06,1.27138e+06,1.27154e+06,
1.27177e+06,1.27183e+06,1.27188e+06,1.27194e+06,1.27202e+06,1.27218e+06,
1.27239e+06,1.27246e+06,1.2725e+06,1.27258e+06,1.27264e+06,1.27281e+06,
1.27302e+06,1.27309e+06,1.27314e+06,1.27321e+06,1.27327e+06,1.27344e+06,
1.27365e+06,1.27372e+06,1.27377e+06,1.27384e+06,1.2739e+06,1.27408e+06,
1.27427e+06,1.27434e+06,1.27438e+06,1.27446e+06,1.27452e+06,1.27469e+06,
1.27488e+06,1.27494e+06,1.27498e+06,1.27505e+06,1.27512e+06,1.27529e+06,
1.27546e+06,1.27552e+06,1.27556e+06,1.27563e+06,1.2757e+06,1.27586e+06,
1.27601e+06,1.27608e+06,1.27612e+06,1.27619e+06,1.27626e+06,1.27642e+06,
1.27656e+06,1.27662e+06,1.27666e+06,1.27673e+06,1.2768e+06,1.27696e+06,
1.27709e+06,1.27716e+06,1.2772e+06,1.27727e+06,1.27734e+06,1.2775e+06,
1.27764e+06,1.27769e+06,1.27774e+06,1.2778e+06,1.27787e+06,1.27803e+06,
1.27816e+06,1.27822e+06,1.27827e+06,1.27834e+06,1.27841e+06,1.27856e+06,
1.2787e+06,1.27875e+06,1.2788e+06,1.27886e+06,1.27893e+06,1.27909e+06,
1.27922e+06,1.27928e+06,1.27933e+06,1.2794e+06,1.27946e+06,1.27962e+06,
1.27975e+06,1.27981e+06,1.27985e+06,1.27992e+06,1.27999e+06,1.28014e+06,
1.28027e+06,1.28033e+06,1.28038e+06,1.28044e+06,1.28051e+06,1.28067e+06,
1.28078e+06,1.28085e+06,1.2809e+06,1.28096e+06,1.28104e+06,1.28119e+06,
1.28131e+06,1.28138e+06,1.28142e+06,1.28149e+06,1.28156e+06,1.28171e+06,
1.28184e+06,1.2819e+06,1.28194e+06,1.28201e+06,1.28208e+06,1.28224e+06,
1.28237e+06,1.28242e+06,1.28247e+06,1.28254e+06,1.28261e+06,1.28276e+06,
1.28289e+06,1.28296e+06,1.283e+06,1.28307e+06,1.28314e+06,1.28329e+06,
1.28342e+06,1.28349e+06,1.28354e+06,1.2836e+06,1.28367e+06,1.28383e+06,
1.28397e+06,1.28403e+06,1.28408e+06,1.28414e+06,1.28422e+06,1.28436e+06,
1.2845e+06,1.28457e+06,1.28462e+06,1.28468e+06,1.28475e+06,1.28491e+06,
1.28506e+06,1.28513e+06,1.28517e+06,1.28524e+06,1.28531e+06,1.28546e+06,
1.28562e+06,1.28568e+06,1.28572e+06,1.28579e+06,1.28585e+06,1.28602e+06,
1.28615e+06,1.28622e+06,1.28627e+06,1.28634e+06,1.28641e+06,1.28656e+06,
1.2867e+06,1.28676e+06,1.28681e+06,1.28688e+06,1.28694e+06,1.2871e+06,
1.28724e+06,1.2873e+06,1.28735e+06,1.28741e+06,1.28748e+06,1.28764e+06,
1.28778e+06,1.28784e+06,1.28788e+06,1.28795e+06,1.28802e+06,1.28818e+06,
1.28832e+06,1.28838e+06,1.28842e+06,1.28848e+06,1.28855e+06,1.28871e+06,
1.28884e+06,1.28891e+06,1.28895e+06,1.28902e+06,1.28908e+06,1.28924e+06,
1.28939e+06,1.28945e+06,1.28949e+06,1.28956e+06,1.28962e+06,1.28979e+06,
1.28993e+06,1.28999e+06,1.29003e+06,1.2901e+06,1.29016e+06,1.29032e+06,
1.29046e+06,1.29052e+06,1.29057e+06,1.29064e+06,1.2907e+06,1.29086e+06,
1.291e+06,1.29107e+06,1.29111e+06,1.29118e+06,1.29125e+06,1.2914e+06,
1.29152e+06,1.2916e+06,1.29165e+06,1.29172e+06,1.29178e+06,1.29195e+06,
1.29206e+06,1.29213e+06,1.29218e+06,1.29225e+06,1.29232e+06,1.29248e+06,
1.2926e+06,1.29267e+06,1.29272e+06,1.29278e+06,1.29286e+06,1.29301e+06,
1.29315e+06,1.29321e+06,1.29325e+06,1.29332e+06,1.29338e+06,1.29354e+06,
1.29367e+06,1.29372e+06,1.2938e+06,1.29386e+06,1.29393e+06,1.29409e+06,
1.29424e+06,1.2943e+06,1.29434e+06,1.29441e+06,1.29447e+06,1.29463e+06,
1.29479e+06,1.29485e+06,1.2949e+06,1.29496e+06,1.29503e+06,1.29519e+06,
1.29535e+06,1.29541e+06,1.29546e+06,1.29553e+06,1.29559e+06,1.29575e+06,
1.29592e+06,1.29598e+06,1.29603e+06,1.29609e+06,1.29616e+06,1.29632e+06,
1.29649e+06,1.29655e+06,1.29659e+06,1.29666e+06,1.29673e+06,1.29688e+06,
1.29705e+06,1.29711e+06,1.29716e+06,1.29722e+06,1.29729e+06,1.29745e+06,
1.29761e+06,1.29767e+06,1.29772e+06,1.29778e+06,1.29785e+06,1.298e+06,
1.29816e+06,1.29822e+06,1.29827e+06,1.29834e+06,1.29841e+06,1.29856e+06,
1.2987e+06,1.29877e+06,1.29882e+06,1.29888e+06,1.29895e+06,1.29911e+06,
1.29925e+06,1.29932e+06,1.29936e+06,1.29943e+06,1.2995e+06,1.29966e+06,
1.2998e+06,1.29986e+06,1.29991e+06,1.29998e+06,1.30004e+06,1.3002e+06,
1.30034e+06,1.30041e+06,1.30045e+06,1.30052e+06,1.30059e+06,1.30074e+06,
1.30088e+06,1.30095e+06,1.301e+06,1.30106e+06,1.30114e+06,1.30128e+06,
1.30143e+06,1.3015e+06,1.30154e+06,1.30161e+06,1.30168e+06,1.30184e+06,
1.30202e+06,1.30208e+06,1.30213e+06,1.3022e+06,1.30227e+06,1.30242e+06,
1.30261e+06,1.30268e+06,1.30272e+06,1.3028e+06,1.30286e+06,1.30302e+06,
1.30322e+06,1.30329e+06,1.30333e+06,1.3034e+06,1.30347e+06,1.30363e+06,
1.30385e+06,1.30392e+06,1.30396e+06,1.30403e+06,1.3041e+06,1.30426e+06,
1.30448e+06,1.30454e+06,1.30459e+06,1.30466e+06,1.30473e+06,1.30489e+06,
1.30511e+06,1.30518e+06,1.30522e+06,1.30529e+06,1.30536e+06,1.30552e+06,
1.30573e+06,1.3058e+06,1.30584e+06,1.30592e+06,1.30598e+06,1.30615e+06,
1.30635e+06,1.30642e+06,1.30646e+06,1.30654e+06,1.3066e+06,1.30676e+06,
1.30695e+06,1.30702e+06,1.30706e+06,1.30713e+06,1.3072e+06,1.30736e+06,
1.30754e+06,1.30761e+06,1.30765e+06,1.30772e+06,1.30779e+06,1.30795e+06,
1.30813e+06,1.30819e+06,1.30824e+06,1.30831e+06,1.30838e+06,1.30854e+06,
1.30871e+06,1.30878e+06,1.30882e+06,1.30889e+06,1.30896e+06,1.30912e+06,
1.30928e+06,1.30935e+06,1.30939e+06,1.30946e+06,1.30953e+06,1.30969e+06,
1.30985e+06,1.30992e+06,1.30996e+06,1.31003e+06,1.3101e+06,1.31026e+06,
1.31042e+06,1.31049e+06,1.31053e+06,1.3106e+06,1.31067e+06,1.31083e+06,
1.311e+06,1.31106e+06,1.31111e+06,1.31118e+06,1.31124e+06,1.3114e+06,
1.31158e+06,1.31165e+06,1.31169e+06,1.31176e+06,1.31182e+06,1.31199e+06,
1.31216e+06,1.31222e+06,1.31227e+06,1.31234e+06,1.3124e+06,1.31257e+06,
1.31274e+06,1.3128e+06,1.31284e+06,1.31292e+06,1.31298e+06,1.31315e+06,
1.31332e+06,1.31338e+06,1.31342e+06,1.31349e+06,1.31356e+06,1.31372e+06,
1.31389e+06,1.31396e+06,1.314e+06,1.31407e+06,1.31414e+06,1.31429e+06,
1.31445e+06,1.31452e+06,1.31457e+06,1.31464e+06,1.3147e+06,1.31487e+06,
1.31502e+06,1.31509e+06,1.31514e+06,1.3152e+06,1.31527e+06,1.31543e+06,
1.31559e+06,1.31565e+06,1.3157e+06,1.31576e+06,1.31583e+06,1.31599e+06,
1.31615e+06,1.31622e+06,1.31626e+06,1.31633e+06,1.31639e+06,1.31656e+06,
1.31672e+06,1.31678e+06,1.31682e+06,1.31689e+06,1.31696e+06,1.31712e+06,
1.31728e+06,1.31734e+06,1.31739e+06,1.31746e+06,1.31753e+06,1.31768e+06,
1.31786e+06,1.31792e+06,1.31797e+06,1.31804e+06,1.31811e+06,1.31827e+06,
1.31845e+06,1.31852e+06,1.31856e+06,1.31863e+06,1.3187e+06,1.31886e+06,
1.31905e+06,1.31911e+06,1.31916e+06,1.31923e+06,1.3193e+06,1.31946e+06,
1.31964e+06,1.31971e+06,1.31976e+06,1.31983e+06,1.31989e+06,1.32006e+06,
1.32024e+06,1.3203e+06,1.32034e+06,1.32042e+06,1.32048e+06,1.32064e+06,
1.32082e+06,1.32088e+06,1.32093e+06,1.321e+06,1.32106e+06,1.32123e+06,
1.3214e+06,1.32147e+06,1.32151e+06,1.32158e+06,1.32165e+06,1.32181e+06,
1.32198e+06,1.32205e+06,1.3221e+06,1.32216e+06,1.32224e+06,1.3224e+06,
1.32257e+06,1.32264e+06,1.32268e+06,1.32275e+06,1.32282e+06,1.32299e+06,
1.32316e+06,1.32323e+06,1.32327e+06,1.32334e+06,1.32341e+06,1.32358e+06,
1.32375e+06,1.32381e+06,1.32386e+06,1.32393e+06,1.32399e+06,1.32416e+06,
1.32432e+06,1.32439e+06,1.32443e+06,1.3245e+06,1.32458e+06,1.32474e+06,
1.32489e+06,1.32496e+06,1.325e+06,1.32507e+06,1.32514e+06,1.3253e+06,
1.32546e+06,1.32552e+06,1.32557e+06,1.32564e+06,1.3257e+06,1.32587e+06,
1.32602e+06,1.32609e+06,1.32614e+06,1.32621e+06,1.32627e+06,1.32644e+06,
1.3266e+06,1.32667e+06,1.32671e+06,1.32678e+06,1.32685e+06,1.32701e+06,
1.32718e+06,1.32725e+06,1.32729e+06,1.32736e+06,1.32743e+06,1.32759e+06,
1.32777e+06,1.32783e+06,1.32788e+06,1.32795e+06,1.32802e+06,1.32817e+06,
1.32837e+06,1.32844e+06,1.32848e+06,1.32855e+06,1.32862e+06,1.32878e+06,
1.32899e+06,1.32906e+06,1.3291e+06,1.32917e+06,1.32924e+06,1.3294e+06,
1.32962e+06,1.32968e+06,1.32973e+06,1.3298e+06,1.32986e+06,1.33003e+06,
1.33024e+06,1.33032e+06,1.33036e+06,1.33043e+06,1.3305e+06,1.33066e+06,
1.33086e+06,1.33093e+06,1.33097e+06,1.33104e+06,1.33111e+06,1.33128e+06,
1.33148e+06,1.33154e+06,1.33158e+06,1.33166e+06,1.33173e+06,1.33189e+06,
1.33209e+06,1.33216e+06,1.3322e+06,1.33227e+06,1.33234e+06,1.3325e+06,
1.3327e+06,1.33276e+06,1.3328e+06,1.33288e+06,1.33294e+06,1.33311e+06,
1.33329e+06,1.33335e+06,1.3334e+06,1.33347e+06,1.33354e+06,1.3337e+06,
1.33388e+06,1.33394e+06,1.33398e+06,1.33405e+06,1.33412e+06,1.33428e+06,
1.33446e+06,1.33453e+06,1.33457e+06,1.33464e+06,1.33471e+06,1.33487e+06,
1.33506e+06,1.33512e+06,1.33517e+06,1.33524e+06,1.33531e+06,1.33547e+06,
1.33568e+06,1.33574e+06,1.33578e+06,1.33586e+06,1.33593e+06,1.33609e+06,
1.33629e+06,1.33636e+06,1.3364e+06,1.33648e+06,1.33654e+06,1.3367e+06,
1.3369e+06,1.33697e+06,1.33701e+06,1.33708e+06,1.33716e+06,1.33732e+06,
1.33752e+06,1.33758e+06,1.33762e+06,1.3377e+06,1.33777e+06,1.33792e+06,
1.33812e+06,1.33819e+06,1.33823e+06,1.3383e+06,1.33837e+06,1.33853e+06,
1.33873e+06,1.33879e+06,1.33884e+06,1.33891e+06,1.33898e+06,1.33914e+06,
1.33933e+06,1.3394e+06,1.33944e+06,1.33952e+06,1.33958e+06,1.33975e+06,
1.33993e+06,1.33999e+06,1.34004e+06,1.34011e+06,1.34018e+06,1.34034e+06,
1.34052e+06,1.34059e+06,1.34064e+06,1.34071e+06,1.34078e+06,1.34094e+06,
1.34112e+06,1.34119e+06,1.34124e+06,1.34131e+06,1.34138e+06,1.34154e+06,
1.34174e+06,1.3418e+06,1.34185e+06,1.34192e+06,1.34199e+06,1.34215e+06,
1.34234e+06,1.34241e+06,1.34246e+06,1.34253e+06,1.3426e+06,1.34276e+06,
1.34296e+06,1.34302e+06,1.34307e+06,1.34314e+06,1.34321e+06,1.34337e+06,
1.34356e+06,1.34363e+06,1.34367e+06,1.34374e+06,1.34381e+06,1.34397e+06,
1.34417e+06,1.34424e+06,1.34428e+06,1.34436e+06,1.34442e+06,1.34459e+06,
1.34478e+06,1.34485e+06,1.34489e+06,1.34496e+06,1.34503e+06,1.3452e+06,
1.34538e+06,1.34545e+06,1.34549e+06,1.34556e+06,1.34564e+06,1.3458e+06,
1.34597e+06,1.34604e+06,1.34608e+06,1.34615e+06,1.34622e+06,1.34638e+06,
1.34656e+06,1.34662e+06,1.34667e+06,1.34674e+06,1.34681e+06,1.34697e+06,
1.34714e+06,1.34721e+06,1.34726e+06,1.34732e+06,1.34739e+06,1.34755e+06,
1.34773e+06,1.34779e+06,1.34784e+06,1.34791e+06,1.34798e+06,1.34814e+06,
1.34832e+06,1.34838e+06,1.34842e+06,1.3485e+06,1.34857e+06,1.34873e+06,
1.3489e+06,1.34896e+06,1.34901e+06,1.34908e+06,1.34915e+06,1.34931e+06,
1.34948e+06,1.34955e+06,1.34959e+06,1.34966e+06,1.34973e+06,1.34989e+06,
1.35007e+06,1.35014e+06,1.35018e+06,1.35025e+06,1.35032e+06,1.35048e+06,
1.35066e+06,1.35073e+06,1.35077e+06,1.35084e+06,1.35091e+06,1.35107e+06,
1.35125e+06,1.35132e+06,1.35136e+06,1.35143e+06,1.3515e+06,1.35166e+06,
1.35183e+06,1.35189e+06,1.35194e+06,1.35201e+06,1.35208e+06,1.35224e+06,
1.3524e+06,1.35247e+06,1.35251e+06,1.35258e+06,1.35265e+06,1.35281e+06,
1.35298e+06,1.35304e+06,1.35309e+06,1.35316e+06,1.35322e+06,1.35338e+06,
1.35356e+06,1.35362e+06,1.35367e+06,1.35374e+06,1.35382e+06,1.35397e+06,
1.35416e+06,1.35422e+06,1.35426e+06,1.35433e+06,1.3544e+06,1.35456e+06,
1.35474e+06,1.3548e+06,1.35485e+06,1.35492e+06,1.35498e+06,1.35515e+06,
1.35533e+06,1.35539e+06,1.35543e+06,1.3555e+06,1.35558e+06,1.35573e+06,
1.35592e+06,1.35598e+06,1.35603e+06,1.3561e+06,1.35617e+06,1.35633e+06,
1.3565e+06,1.35657e+06,1.35662e+06,1.35669e+06,1.35677e+06,1.35692e+06,
1.35708e+06,1.35716e+06,1.3572e+06,1.35728e+06,1.35734e+06,1.3575e+06,
1.35768e+06,1.35774e+06,1.3578e+06,1.35787e+06,1.35795e+06,1.35811e+06,
1.35828e+06,1.35835e+06,1.3584e+06,1.35847e+06,1.35854e+06,1.3587e+06,
1.35887e+06,1.35893e+06,1.35899e+06,1.35907e+06,1.35914e+06,1.3593e+06,
1.35947e+06,1.35953e+06,1.35958e+06,1.35965e+06,1.35972e+06,1.35988e+06,
1.36004e+06,1.3601e+06,1.36015e+06,1.36022e+06,1.3603e+06,1.36046e+06,
1.36062e+06,1.36068e+06,1.36074e+06,1.3608e+06,1.36088e+06,1.36103e+06,
1.36119e+06,1.36125e+06,1.3613e+06,1.36137e+06,1.36144e+06,1.3616e+06,
1.36176e+06,1.36182e+06,1.36186e+06,1.36193e+06,1.36201e+06,1.36217e+06,
1.36231e+06,1.36238e+06,1.36242e+06,1.36249e+06,1.36256e+06,1.36273e+06,
1.36287e+06,1.36293e+06,1.36298e+06,1.36305e+06,1.36313e+06,1.36329e+06,
1.36342e+06,1.3635e+06,1.36354e+06,1.36361e+06,1.36369e+06,1.36384e+06,
1.36398e+06,1.36405e+06,1.3641e+06,1.36416e+06,1.36423e+06,1.36439e+06,
1.36453e+06,1.3646e+06,1.36465e+06,1.36472e+06,1.36479e+06,1.36495e+06,
1.36508e+06,1.36516e+06,1.36521e+06,1.36528e+06,1.36534e+06,1.36551e+06,
1.36566e+06,1.36573e+06,1.36578e+06,1.36584e+06,1.36591e+06,1.36608e+06,
1.36622e+06,1.36629e+06,1.36634e+06,1.36641e+06,1.36648e+06,1.36663e+06,
1.36679e+06,1.36685e+06,1.3669e+06,1.36697e+06,1.36704e+06,1.3672e+06,
1.36736e+06,1.36743e+06,1.36748e+06,1.36755e+06,1.36762e+06,1.36778e+06,
1.36796e+06,1.36803e+06,1.36807e+06,1.36814e+06,1.36822e+06,1.36838e+06,
1.36856e+06,1.36862e+06,1.36867e+06,1.36874e+06,1.36881e+06,1.36897e+06,
1.36916e+06,1.36923e+06,1.36927e+06,1.36934e+06,1.36942e+06,1.36958e+06,
1.36977e+06,1.36984e+06,1.36988e+06,1.36995e+06,1.37002e+06,1.37019e+06,
1.37037e+06,1.37043e+06,1.37047e+06,1.37054e+06,1.37061e+06,1.37078e+06,
1.37096e+06,1.37102e+06,1.37106e+06,1.37114e+06,1.37121e+06,1.37137e+06,
1.37154e+06,1.37161e+06,1.37166e+06,1.37173e+06,1.3718e+06,1.37196e+06,
1.37213e+06,1.3722e+06,1.37224e+06,1.37231e+06,1.37238e+06,1.37254e+06,
1.37272e+06,1.37278e+06,1.37283e+06,1.3729e+06,1.37298e+06,1.37313e+06,
1.37334e+06,1.3734e+06,1.37344e+06,1.37351e+06,1.37358e+06,1.37374e+06,
1.37398e+06,1.37405e+06,1.3741e+06,1.37417e+06,1.37424e+06,1.3744e+06,
1.37465e+06,1.37472e+06,1.37476e+06,1.37483e+06,1.3749e+06,1.37507e+06,
1.37529e+06,1.37536e+06,1.3754e+06,1.37547e+06,1.37554e+06,1.37571e+06,
1.37592e+06,1.37599e+06,1.37604e+06,1.37611e+06,1.37618e+06,1.37635e+06,
1.37657e+06,1.37664e+06,1.37668e+06,1.37675e+06,1.37682e+06,1.37699e+06,
1.37724e+06,1.37732e+06,1.37736e+06,1.37743e+06,1.3775e+06,1.37767e+06,
1.37795e+06,1.37802e+06,1.37806e+06,1.37814e+06,1.3782e+06,1.37838e+06,
1.37866e+06,1.37873e+06,1.37877e+06,1.37885e+06,1.37891e+06,1.37908e+06,
1.37936e+06,1.37944e+06,1.37948e+06,1.37955e+06,1.37962e+06,1.37979e+06,
1.38007e+06,1.38014e+06,1.38018e+06,1.38026e+06,1.38032e+06,1.3805e+06,
1.38076e+06,1.38083e+06,1.38087e+06,1.38094e+06,1.38101e+06,1.38118e+06,
1.38143e+06,1.3815e+06,1.38154e+06,1.38162e+06,1.38168e+06,1.38186e+06,
1.3821e+06,1.38216e+06,1.38221e+06,1.38228e+06,1.38235e+06,1.38252e+06,
1.38275e+06,1.38282e+06,1.38286e+06,1.38293e+06,1.383e+06,1.38317e+06,
1.38339e+06,1.38346e+06,1.3835e+06,1.38357e+06,1.38364e+06,1.38381e+06,
1.38402e+06,1.38409e+06,1.38413e+06,1.3842e+06,1.38427e+06,1.38444e+06,
1.38464e+06,1.38471e+06,1.38476e+06,1.38483e+06,1.3849e+06,1.38507e+06,
1.38528e+06,1.38534e+06,1.38538e+06,1.38546e+06,1.38553e+06,1.38569e+06,
1.38591e+06,1.38597e+06,1.38602e+06,1.38609e+06,1.38616e+06,1.38633e+06,
1.38654e+06,1.38661e+06,1.38665e+06,1.38672e+06,1.38679e+06,1.38696e+06,
1.38717e+06,1.38724e+06,1.38728e+06,1.38735e+06,1.38742e+06,1.38758e+06,
1.38779e+06,1.38785e+06,1.3879e+06,1.38797e+06,1.38804e+06,1.3882e+06,
1.38841e+06,1.38848e+06,1.38852e+06,1.38859e+06,1.38866e+06,1.38883e+06,
1.38903e+06,1.38909e+06,1.38914e+06,1.38921e+06,1.38928e+06,1.38944e+06,
1.38964e+06,1.38971e+06,1.38975e+06,1.38982e+06,1.38989e+06,1.39006e+06,
1.39026e+06,1.39033e+06,1.39037e+06,1.39044e+06,1.39051e+06,1.39068e+06,
1.39087e+06,1.39094e+06,1.39098e+06,1.39105e+06,1.39112e+06,1.39129e+06,
1.39147e+06,1.39154e+06,1.39158e+06,1.39166e+06,1.39173e+06,1.39189e+06,
1.39207e+06,1.39214e+06,1.39218e+06,1.39225e+06,1.39232e+06,1.39249e+06,
1.39267e+06,1.39273e+06,1.39278e+06,1.39285e+06,1.39292e+06,1.39308e+06,
1.39327e+06,1.39333e+06,1.39338e+06,1.39345e+06,1.39352e+06,1.39368e+06,
1.39387e+06,1.39394e+06,1.39398e+06,1.39405e+06,1.39412e+06,1.39428e+06,
1.39448e+06,1.39455e+06,1.39459e+06,1.39466e+06,1.39474e+06,1.3949e+06,
1.3951e+06,1.39516e+06,1.3952e+06,1.39528e+06,1.39535e+06,1.39551e+06,
1.39571e+06,1.39577e+06,1.39582e+06,1.39589e+06,1.39596e+06,1.39612e+06,
1.39632e+06,1.39639e+06,1.39644e+06,1.39651e+06,1.39658e+06,1.39674e+06,
1.39696e+06,1.39702e+06,1.39706e+06,1.39714e+06,1.3972e+06,1.39737e+06,
1.39758e+06,1.39765e+06,1.3977e+06,1.39777e+06,1.39784e+06,1.398e+06,
1.39821e+06,1.39828e+06,1.39832e+06,1.39839e+06,1.39846e+06,1.39863e+06,
1.39884e+06,1.3989e+06,1.39895e+06,1.39902e+06,1.39909e+06,1.39926e+06,
1.39946e+06,1.39952e+06,1.39956e+06,1.39964e+06,1.39971e+06,1.39988e+06,
1.40006e+06,1.40013e+06,1.40017e+06,1.40024e+06,1.40031e+06,1.40048e+06,
1.40067e+06,1.40074e+06,1.40078e+06,1.40086e+06,1.40092e+06,1.40109e+06,
1.40128e+06,1.40134e+06,1.40139e+06,1.40146e+06,1.40153e+06,1.40169e+06,
1.40188e+06,1.40194e+06,1.40199e+06,1.40206e+06,1.40213e+06,1.40229e+06,
1.40248e+06,1.40255e+06,1.40259e+06,1.40266e+06,1.40274e+06,1.4029e+06,
1.40309e+06,1.40315e+06,1.4032e+06,1.40327e+06,1.40334e+06,1.4035e+06,
1.40369e+06,1.40375e+06,1.4038e+06,1.40387e+06,1.40394e+06,1.4041e+06,
1.40429e+06,1.40436e+06,1.4044e+06,1.40447e+06,1.40454e+06,1.4047e+06,
